Wavelength	rt0718west_far00001.asd
350	 1.87714965268653E-02 
351	 1.81859641427857E-02 
352	 1.89228284672854E-02 
353	 0.019501557044394 
354	 1.91866376312797E-02 
355	 1.95591022976533E-02 
356	 0.019727931039934 
357	 1.97830552293989E-02 
358	 1.99648010852322E-02 
359	 1.98614579379297E-02 
360	 0.019840337159178 
361	 2.00163057403932E-02 
362	 2.02762829224307E-02 
363	 2.02788811568937E-02 
364	 2.01588019783622E-02 
365	 0.020098777683689 
366	 2.02423797275129E-02 
367	 2.07742425146464E-02 
368	 2.09314719825057E-02 
369	 2.03539030056264E-02 
370	 2.09680918817326E-02 
371	 2.11421967476816E-02 
372	 2.08092058633512E-02 
373	 0.020848681517363 
374	 2.15434173795452E-02 
375	 2.19757362693178E-02 
376	 2.18448821701496E-02 
377	 2.18559679111795E-02 
378	 2.21852147697063E-02 
379	 2.25290894917744E-02 
380	 2.26147831412239E-02 
381	 2.26769912274869E-02 
382	 2.27327043776565E-02 
383	 2.30113674160643E-02 
384	 2.37032809238124E-02 
385	 2.41429406326541E-02 
386	 2.44692492221446E-02 
387	 2.46308043466027E-02 
388	 2.43287493459347E-02 
389	 2.43637864566133E-02 
390	 2.44796773234166E-02 
391	 2.44692028476652E-02 
392	 2.47701129324043E-02 
393	 2.51947664776731E-02 
394	 2.57452497451266E-02 
395	 2.63511156052609E-02 
396	 2.62482589784949E-02 
397	 0.025975477393616 
398	 2.59468049011182E-02 
399	 2.63496695720997E-02 
400	 2.67686345400031E-02 
401	 2.68379652568787E-02 
402	 2.66115532254826E-02 
403	 2.70134321238849E-02 
404	 2.72570317197833E-02 
405	 2.73895343639493E-02 
406	 2.76741809575664E-02 
407	 2.77433894264735E-02 
408	 2.78024923861911E-02 
409	 2.79650936875907E-02 
410	 2.82125647667241E-02 
411	 2.84159341936778E-02 
412	 2.86616438375273E-02 
413	 2.89489533646805E-02 
414	 2.89412865195461E-02 
415	 2.91102995086484E-02 
416	 2.94021723649916E-02 
417	 2.95945781567667E-02 
418	 2.98829091929281E-02 
419	 0.030124060992049 
420	 3.03273183817832E-02 
421	 3.06773726989168E-02 
422	 3.08909248158965E-02 
423	 3.11033915968981E-02 
424	 3.14355305838234E-02 
425	 3.17300583183317E-02 
426	 3.19652202491585E-02 
427	 3.22280751156643E-02 
428	 0.032621066210198 
429	 3.29399346140523E-02 
430	 3.32522423671607E-02 
431	 3.36148619719824E-02 
432	 3.40407784153363E-02 
433	 3.43504248018455E-02 
434	 3.46645088965861E-02 
435	 3.50822145075627E-02 
436	 3.54324752630871E-02 
437	 3.58006225750204E-02 
438	 0.036166396775884 
439	 3.64685343834225E-02 
440	 0.036824924686022 
441	 3.72196759007867E-02 
442	 3.76269984385562E-02 
443	 3.80323897501419E-02 
444	 3.83907537843778E-02 
445	 3.87693263468297E-02 
446	 3.92037959741616E-02 
447	 3.94912241448577E-02 
448	 3.97273179700845E-02 
449	 3.99894586780195E-02 
450	 4.03233767498511E-02 
451	 4.06107704224813E-02 
452	 4.08451727732449E-02 
453	 4.10621326143706E-02 
454	 4.13514772600946E-02 
455	 4.15353931404086E-02 
456	 0.041734424984199 
457	 4.20893955574972E-02 
458	 4.22461606129435E-02 
459	 4.23708610695963E-02 
460	 4.25397453561416E-02 
461	 4.27090695104187E-02 
462	 4.28083060677024E-02 
463	 4.30049640323972E-02 
464	 4.33299832911476E-02 
465	 4.32805547732624E-02 
466	 4.34763583525059E-02 
467	 4.38313103423426E-02 
468	 4.39746504750603E-02 
469	 4.42554108230204E-02 
470	 4.45181240824137E-02 
471	 4.46972291907581E-02 
472	 4.49023610702013E-02 
473	 4.52001516931205E-02 
474	 4.54902576765981E-02 
475	 4.56807654016758E-02 
476	 4.58658490099076E-02 
477	 0.046135163008699 
478	 4.64738235977829E-02 
479	 4.67936684612888E-02 
480	 4.70746384189558E-02 
481	 4.73139252638504E-02 
482	 0.047547225014527 
483	 4.78823586905889E-02 
484	 4.81891643608435E-02 
485	 4.84234109193636E-02 
486	 4.86463610472038E-02 
487	 4.92772964866201E-02 
488	 4.97629765076266E-02 
489	 5.00146858261076E-02 
490	 5.04290621716392E-02 
491	 5.08077430145915E-02 
492	 5.11673339875356E-02 
493	 5.15530807304049E-02 
494	 5.19880112536375E-02 
495	 5.24439271200081E-02 
496	 5.29427047765398E-02 
497	 5.35055929633271E-02 
498	 5.39145067815027E-02 
499	 5.43826084208218E-02 
500	 5.49981975630601E-02 
501	 5.55963144990453E-02 
502	 5.61004590784385E-02 
503	 5.65747905675619E-02 
504	 5.70992175773381E-02 
505	 5.75990178300674E-02 
506	 5.81613571929176E-02 
507	 5.87796322403171E-02 
508	 5.93699164114431E-02 
509	 5.99150839828866E-02 
510	 6.03908082124263E-02 
511	 6.08518680103813E-02 
512	 6.15553476378962E-02 
513	 6.21996828283612E-02 
514	 6.27844710210117E-02 
515	 6.34266168551969E-02 
516	 6.40941483577096E-02 
517	 6.47771502339026E-02 
518	 6.55071931708962E-02 
519	 6.63641697492302E-02 
520	 6.71262080219749E-02 
521	 6.77886249045516E-02 
522	 6.84303292940473E-02 
523	 6.91999940898318E-02 
524	 6.99524233181927E-02 
525	 7.06864910608731E-02 
526	 7.14978304643233E-02 
527	 7.22603079689914E-02 
528	 7.30646922504627E-02 
529	 7.39326338597054E-02 
530	 0.07469629666145 
531	 7.54570596142922E-02 
532	 7.62494492468408E-02 
533	 7.70798357376079E-02 
534	 7.79454818559615E-02 
535	 7.87804106514541E-02 
536	 7.95880586338469E-02 
537	 0.080446243717505 
538	 8.13431833706365E-02 
539	 8.22089502998895E-02 
540	 8.30198979322755E-02 
541	 0.083955996944622 
542	 8.48690822711121E-02 
543	 8.57192024887879E-02 
544	 8.65505390750094E-02 
545	 8.74844779471345E-02 
546	 8.83709409204922E-02 
547	 8.91496611545062E-02 
548	 9.00007932956152E-02 
549	 9.08320276912788E-02 
550	 9.16599433480484E-02 
551	 9.25318936966965E-02 
552	 9.34541506425283E-02 
553	 9.43199600884576E-02 
554	 9.51273673530887E-02 
555	 9.59912602539936E-02 
556	 9.68262252780653E-02 
557	 9.76581672123904E-02 
558	 9.85043663054086E-02 
559	 9.93027363361692E-02 
560	 0.100074372509868 
561	 0.100805657145741 
562	 0.101477970895233 
563	 0.102201975322548 
564	 0.102894136264646 
565	 0.103513580422746 
566	 0.104156189494132 
567	 0.104758183071048 
568	 0.10529132594644 
569	 0.105765494171636 
570	 0.106332641830446 
571	 0.106853092445317 
572	 0.107275035021847 
573	 0.107660865018593 
574	 0.108057517610173 
575	 0.108357023956207 
576	 0.108510109605138 
577	 0.108789492852074 
578	 0.108979195931265 
579	 0.109046648833251 
580	 0.109079202626104 
581	 0.109132873633459 
582	 0.109063162221818 
583	 0.108854504155207 
584	 0.108780357127169 
585	 0.108578108131074 
586	 0.108252087822153 
587	 0.107894036052324 
588	 0.10752590326857 
589	 0.1071869241176 
590	 0.10687812032943 
591	 0.106536465386064 
592	 0.106055535472487 
593	 0.105425136305694 
594	 0.104688327531156 
595	 0.103946129532201 
596	 0.103019390756328 
597	 0.101914158093641 
598	 0.100763376462404 
599	 9.96935833456078E-02 
600	 9.87494124015341E-02 
601	 9.79663259083688E-02 
602	 9.73844891298524E-02 
603	 9.70136084536922E-02 
604	 9.67886600967825E-02 
605	 9.66346413738822E-02 
606	 9.65656761994815E-02 
607	 9.64997172249644E-02 
608	 9.64555812805455E-02 
609	 9.65501854627399E-02 
610	 9.65682887032626E-02 
611	 9.65717075158635E-02 
612	 9.66149153430584E-02 
613	 9.65394324449714E-02 
614	 9.65035355578456E-02 
615	 9.65125615881514E-02 
616	 9.64846973048518E-02 
617	 9.64018615049466E-02 
618	 9.63379172507911E-02 
619	 9.63160470938651E-02 
620	 9.62624456520622E-02 
621	 9.62525244914925E-02 
622	 9.62558967962564E-02 
623	 0.096225168845253 
624	 9.62113106417399E-02 
625	 9.61712840767095E-02 
626	 9.60831839390758E-02 
627	 9.59578450073384E-02 
628	 9.60084815729266E-02 
629	 9.60038161202585E-02 
630	 9.58134872047739E-02 
631	 9.58048481169921E-02 
632	 9.57550777670392E-02 
633	 9.56646417412998E-02 
634	 9.56207880278206E-02 
635	 9.55251409037164E-02 
636	 0.095441567164472 
637	 9.53979971276468E-02 
638	 9.53520089466084E-02 
639	 9.52109576956417E-02 
640	 0.09511106701022 
641	 9.51473790748598E-02 
642	 9.49488725879425E-02 
643	 0.094805491106992 
644	 9.47437482234591E-02 
645	 9.45770805752933E-02 
646	 0.094445407284915 
647	 9.43296925772815E-02 
648	 9.41892961831389E-02 
649	 9.40077165775426E-02 
650	 9.36886932464598E-02 
651	 0.093331697913874 
652	 9.30558751234933E-02 
653	 9.25099095433462E-02 
654	 0.091831799390625 
655	 9.10835972537292E-02 
656	 9.02832780744509E-02 
657	 8.95968954184185E-02 
658	 8.89517964203595E-02 
659	 8.82781622022344E-02 
660	 8.77436854770724E-02 
661	 8.73035165518988E-02 
662	 8.69372987621587E-02 
663	 8.66396419363313E-02 
664	 8.63569815573872E-02 
665	 8.60434099042926E-02 
666	 8.57071860942534E-02 
667	 0.085445428039463 
668	 8.53549876364341E-02 
669	 8.52622902543014E-02 
670	 8.49858495785022E-02 
671	 8.47863239543458E-02 
672	 8.47163802479296E-02 
673	 8.47205838639701E-02 
674	 8.46624683873993E-02 
675	 8.46768434652929E-02 
676	 8.47032169384482E-02 
677	 8.47037805437605E-02 
678	 8.47995003497962E-02 
679	 8.48284942337244E-02 
680	 8.48510976950205E-02 
681	 8.49978316654537E-02 
682	 8.51126688626051E-02 
683	 8.52590183788194E-02 
684	 8.54037582881814E-02 
685	 8.53639520549908E-02 
686	 8.53794018619376E-02 
687	 8.53991521099663E-02 
688	 8.52993564158994E-02 
689	 8.50475300651922E-02 
690	 8.47804923618104E-02 
691	 8.44762822736918E-02 
692	 8.40266383378962E-02 
693	 0.083620027933904 
694	 8.29877282517984E-02 
695	 8.21313145932262E-02 
696	 8.14836181971936E-02 
697	 8.07468161180883E-02 
698	 7.98202841197794E-02 
699	 7.87407384651833E-02 
700	 7.76762178557462E-02 
701	 7.65592546181119E-02 
702	 7.53847373585372E-02 
703	 7.41750438977873E-02 
704	 7.29515163652703E-02 
705	 7.16343782173309E-02 
706	 7.01952797286131E-02 
707	 6.86659010224163E-02 
708	 6.70562618700264E-02 
709	 6.53616737953963E-02 
710	 6.35621973306219E-02 
711	 6.16325428543246E-02 
712	 5.95678270896357E-02 
713	 5.74423779114492E-02 
714	 5.53557403718859E-02 
715	 5.33077832594103E-02 
716	 5.11298037193905E-02 
717	 0.04880448005672 
718	 4.64038268846024E-02 
719	 4.40155075016176E-02 
720	 4.20254886922999E-02 
721	 4.03344747953479E-02 
722	 3.85434002254444E-02 
723	 3.64180169525128E-02 
724	 3.42816845885079E-02 
725	 3.25651504874718E-02 
726	 3.04112233283834E-02 
727	 2.81013798209977E-02 
728	 2.60091395469266E-02 
729	 2.38621274592324E-02 
730	 2.16424234232067E-02 
731	 1.97040362914902E-02 
732	 1.83180294053596E-02 
733	 1.69203703935409E-02 
734	 1.57639415244973E-02 
735	 1.49670391142078E-02 
736	 1.43649142473193E-02 
737	 1.38480812948514E-02 
738	 1.33845267822933E-02 
739	 1.30080814128697E-02 
740	 1.28464633334036E-02 
741	 1.26953283566959E-02 
742	 1.25506074118747E-02 
743	 1.25056027377017E-02 
744	 1.25116694014409E-02 
745	 0.01244902182059 
746	 1.23406861153449E-02 
747	 1.24054203218108E-02 
748	 1.23890353101578E-02 
749	 1.23019387191469E-02 
750	 1.22309462434153E-02 
751	 1.22731760289654E-02 
752	 0.012309751947439 
753	 1.22999665024288E-02 
754	 0.012255373783283 
755	 1.21927886783885E-02 
756	 0.012217005815757 
757	 0.012343471570342 
758	 1.24802616281435E-02 
759	 1.25117849733695E-02 
760	 0.012513361415042 
761	 1.26241778831285E-02 
762	 1.25090832836415E-02 
763	 0.012464576846452 
764	 1.24833335192781E-02 
765	 1.24870293230035E-02 
766	 1.26359983732577E-02 
767	 1.27362043877053E-02 
768	 1.27747175195591E-02 
769	 1.28986279034648E-02 
770	 1.29893430375218E-02 
771	 0.013051345391189 
772	 1.31268748326848E-02 
773	 1.32891408422073E-02 
774	 1.35074665512335E-02 
775	 1.36647341303813E-02 
776	 1.36838132327746E-02 
777	 1.39317355945465E-02 
778	 1.42517321412021E-02 
779	 1.44943735693157E-02 
780	 0.014580958456631 
781	 1.47934891959992E-02 
782	 1.50471628558585E-02 
783	 1.52474020748918E-02 
784	 1.54367425718764E-02 
785	 1.56412688043438E-02 
786	 0.015918699935984 
787	 1.62854639004128E-02 
788	 1.65108470016125E-02 
789	 0.016828157835656 
790	 1.72715205159415E-02 
791	 0.017685458895036 
792	 1.78881350695944E-02 
793	 1.81061355591358E-02 
794	 0.018465215418103 
795	 1.88236468551642E-02 
796	 1.92274963573989E-02 
797	 1.95257095830772E-02 
798	 1.96527843274953E-02 
799	 1.99571729064315E-02 
800	 2.02768740285806E-02 
801	 0.0205023132325 
802	 2.06133732799449E-02 
803	 2.09501601354545E-02 
804	 2.11507912768405E-02 
805	 2.11347040140527E-02 
806	 2.11902201738687E-02 
807	 2.12340392388293E-02 
808	 2.12472133084872E-02 
809	 2.11907631978571E-02 
810	 2.09368330780283E-02 
811	 2.07956924386079E-02 
812	 2.06676404083292E-02 
813	 2.03432874920168E-02 
814	 2.01140757688157E-02 
815	 1.98368252270385E-02 
816	 1.94970438019433E-02 
817	 0.019163230762307 
818	 1.85005811879234E-02 
819	 1.80068074281916E-02 
820	 1.76872744742879E-02 
821	 1.68827742091203E-02 
822	 1.63078988907513E-02 
823	 1.54351337273262E-02 
824	 1.40661443938667E-02 
825	 1.33358394075434E-02 
826	 1.25350897334054E-02 
827	 1.15632649118618E-02 
828	 1.05843894496567E-02 
829	 9.55987371200716E-03 
830	 8.84940110834435E-03 
831	 8.37086354334118E-03 
832	 7.78986073336183E-03 
833	 7.71764040916075E-03 
834	 7.39188675703795E-03 
835	 6.78863454950148E-03 
836	 7.00488884030113E-03 
837	 6.81023999188989E-03 
838	 6.5186529242624E-03 
839	 6.5048362708183E-03 
840	 6.41233458554454E-03 
841	 6.25930093296468E-03 
842	 6.12417238236736E-03 
843	 6.0801929072397E-03 
844	 6.02791555668999E-03 
845	 5.86393332444287E-03 
846	 5.70982804481842E-03 
847	 5.78305851122821E-03 
848	 5.68585171971013E-03 
849	 5.57119215866372E-03 
850	 5.49701779738928E-03 
851	 5.32863364614358E-03 
852	 5.26230098710084E-03 
853	 5.20985848680173E-03 
854	 5.12783454915627E-03 
855	 5.19534459764129E-03 
856	 5.21709545102685E-03 
857	 5.15232641237174E-03 
858	 5.01740790742553E-03 
859	 4.82824215051676E-03 
860	 4.85207852952239E-03 
861	 4.91970435807106E-03 
862	 4.75534661330983E-03 
863	 4.96610864349393E-03 
864	 4.88716260978807E-03 
865	 4.57573958461394E-03 
866	 4.72318147148449E-03 
867	 4.59639345018026E-03 
868	 4.4345672267251E-03 
869	 4.45532337697451E-03 
870	 4.65887820331683E-03 
871	 4.48097757651975E-03 
872	 4.31340636008709E-03 
873	 4.4480785099548E-03 
874	 4.4847545703753E-03 
875	 4.21169082974252E-03 
876	 4.0311921031214E-03 
877	 4.28452592527257E-03 
878	 4.39577063751621E-03 
879	 4.05588343647699E-03 
880	 3.71591829693257E-03 
881	 3.94429178510533E-03 
882	 3.75385715665537E-03 
883	 3.53919854204425E-03 
884	 3.48457831711462E-03 
885	 3.54965334469771E-03 
886	 3.75086964859851E-03 
887	 3.64796073792936E-03 
888	 3.38959337976802E-03 
889	 3.72679902676494E-03 
890	 3.3206630182604E-03 
891	 3.11664449397764E-03 
892	 3.56888354384768E-03 
893	 3.4675498131107E-03 
894	 3.68775590145458E-03 
895	 3.66956818868161E-03 
896	 3.04574771512707E-03 
897	 3.26821441988556E-03 
898	 3.69351341842464E-03 
899	 3.76691112575412E-03 
900	 3.33815158574495E-03 
901	 3.37954146289033E-03 
902	 3.03706718765459E-03 
903	 2.80727869486748E-03 
904	 3.31967255786669E-03 
905	 3.16427284505006E-03 
906	 3.08370713618881E-03 
907	 2.97515412867951E-03 
908	 2.3763991462761E-03 
909	 3.17148493601453E-03 
910	 3.3367586138705E-03 
911	 2.63999820022517E-03 
912	 2.65180724751325E-03 
913	 2.7018329592498E-03 
914	 2.6034673783525E-03 
915	 2.5265994784384E-03 
916	 2.89828600676098E-03 
917	 3.17460527575677E-03 
918	 3.03453836319543E-03 
919	 2.62465411270639E-03 
920	 0.002598692464672 
921	 2.94088683561773E-03 
922	 3.05779591204566E-03 
923	 0.002664998122453 
924	 2.34225545668397E-03 
925	 2.74329302326565E-03 
926	 3.35592093968645E-03 
927	 3.25399243088816E-03 
928	 1.50064408602426E-03 
929	 1.38506286938918E-03 
930	 2.06383643182022E-03 
931	 9.6968248468356E-04 
932	 2.25720947756354E-03 
933	 1.26351391870539E-03 
934	 5.64644569568817E-04 
935	 3.95266648371392E-03 
936	 4.27291300215863E-03 
937	 1.85393932471778E-03 
938	 9.08855429008935E-04 
939	 4.09767096194716E-03 
940	 5.07165598731828E-03 
941	 3.06568686745515E-03 
942	 1.12134425907769E-03 
943	 2.82621432686723E-03 
944	 1.92015295157183E-03 
945	 7.47088135801258E-04 
946	 4.53919444041743E-04 
947	 8.28818222978493E-04 
948	 6.34673676142795E-04 
949	 3.15874291227663E-03 
950	 4.90090106459414E-03 
951	 5.78947253198356E-04 
952	 1.0139821161604E-03 
953	 1.40878629537544E-03 
954	 1.16612889707175E-03 
955	 2.65592842616265E-03 
956	 1.76255256811869E-03 
957	 2.33451868494393E-03 
958	 3.36700846281856E-03 
959	 1.18006969323617E-03 
960	 1.08924367240599E-03 
961	 1.86031336410467E-03 
962	 2.36479234342045E-03 
963	 2.12319213746809E-03 
964	 3.56295124936387E-04 
965	 1.43273011211926E-03 
966	 3.87371254609594E-03 
967	 2.70847961370068E-03 
968	 2.21976821917954E-03 
969	 1.67380589354224E-03 
970	 1.60847013442011E-03 
971	 3.46666081873213E-03 
972	 3.62121221421527E-03 
973	 3.64114603756683E-03 
974	 3.55771580675272E-03 
975	 1.85402445410429E-03 
976	 1.66817478209123E-03 
977	 2.13627863134295E-03 
978	 2.1847589716596E-03 
979	 1.43255775817505E-03 
980	 2.12336503740801E-03 
981	 3.03429982515057E-03 
982	 3.22067227327918E-03 
983	 2.47486427090674E-03 
984	 1.3459224805587E-03 
985	 1.74823924488052E-03 
986	 3.22680352034567E-03 
987	 3.39787117136168E-03 
988	 8.76211683689124E-04 
989	 1.50569503032326E-04 
990	 1.48350384794333E-03 
991	 1.82314238902151E-03 
992	 2.54302358830302E-03 
993	 2.56002473144602E-03 
994	 1.93740939758462E-03 
995	 1.63986981578801E-03 
996	 2.05864555264576E-03 
997	 2.03726062395768E-03 
998	 1.82347779584638E-03 
999	 2.36235650777058E-03 
1000	 2.90456295999587E-03 
1001	 2.96385053327733E-03 
1002	 2.82405268546924E-03 
1003	 2.90453764030705E-03 
1004	 3.24507149612461E-03 
1005	 3.3358433106388E-03 
1006	 3.45882076627204E-03 
1007	 3.48315378918668E-03 
1008	 3.05952406274816E-03 
1009	 2.66730736390243E-03 
1010	 2.57560973923008E-03 
1011	 2.57850316510392E-03 
1012	 2.81931237115924E-03 
1013	 3.05459889439827E-03 
1014	 3.12041260663044E-03 
1015	 3.00725472910243E-03 
1016	 3.07996759850549E-03 
1017	 3.20389646376588E-03 
1018	 3.22975665528895E-03 
1019	 3.26328194102252E-03 
1020	 3.28306502364562E-03 
1021	 3.24759164222139E-03 
1022	 3.15351157234356E-03 
1023	 3.11251119921818E-03 
1024	 3.10487005991941E-03 
1025	 2.84146356623769E-03 
1026	 2.64978585877246E-03 
1027	 2.66532346634422E-03 
1028	 2.75025632045892E-03 
1029	 2.94662566567971E-03 
1030	 3.52512042255024E-03 
1031	 3.61307513608637E-03 
1032	 3.44042540661717E-03 
1033	 3.50960686705864E-03 
1034	 3.55362019134019E-03 
1035	 3.48640813847088E-03 
1036	 3.6576897237191E-03 
1037	 3.50220435529271E-03 
1038	 2.78406836846644E-03 
1039	 2.41003028238031E-03 
1040	 2.2637765507683E-03 
1041	 2.30969599903804E-03 
1042	 2.57206556282459E-03 
1043	 3.47412829826118E-03 
1044	 3.54894195267502E-03 
1045	 3.37104516832067E-03 
1046	 3.29090145223207E-03 
1047	 2.62525663504003E-03 
1048	 2.68032438615515E-03 
1049	 3.53121155359509E-03 
1050	 3.60927445623519E-03 
1051	 3.55944919938535E-03 
1052	 3.47222981654107E-03 
1053	 2.61591453652589E-03 
1054	 2.39023970304519E-03 
1055	 2.74801322437445E-03 
1056	 2.8777303981613E-03 
1057	 3.03553402062773E-03 
1058	 3.4781640897417E-03 
1059	 3.41963212563364E-03 
1060	 3.01317652274602E-03 
1061	 2.81718425921057E-03 
1062	 2.32167549583824E-03 
1063	 2.2989517712186E-03 
1064	 2.67649374922903E-03 
1065	 2.78802624761045E-03 
1066	 2.99941242236803E-03 
1067	 3.15873405487413E-03 
1068	 3.23008870952192E-03 
1069	 3.22539855964774E-03 
1070	 3.2618914231951E-03 
1071	 3.2229262893626E-03 
1072	 2.97448288543696E-03 
1073	 2.79183405384233E-03 
1074	 2.62334826051252E-03 
1075	 2.34257004397375E-03 
1076	 2.49489064167158E-03 
1077	 3.0115322235359E-03 
1078	 3.03918979130981E-03 
1079	 3.13138867885928E-03 
1080	 3.15364132827929E-03 
1081	 2.75022978758534E-03 
1082	 2.60900424697746E-03 
1083	 0.002693739303688 
1084	 2.75361844165602E-03 
1085	 2.79769875169083E-03 
1086	 2.79328425041845E-03 
1087	 2.80943490250021E-03 
1088	 2.89296074951941E-03 
1089	 3.05966694202373E-03 
1090	 3.05277316427995E-03 
1091	 2.97408298951266E-03 
1092	 2.88093488931278E-03 
1093	 2.97058227850797E-03 
1094	 3.03050721587795E-03 
1095	 2.99302450544174E-03 
1096	 3.15779249124008E-03 
1097	 3.09863687352098E-03 
1098	 2.53638287879257E-03 
1099	 2.39597527440801E-03 
1100	 2.6753210259831E-03 
1101	 2.70112298738669E-03 
1102	 2.6462338677519E-03 
1103	 2.64834696673197E-03 
1104	 2.64173528188282E-03 
1105	 2.37736112391942E-03 
1106	 2.67184460949897E-03 
1107	 2.93181775731913E-03 
1108	 2.94036122967475E-03 
1109	 3.19804566521753E-03 
1110	 3.32098864153978E-03 
1111	 3.27758365837071E-03 
1112	 3.32652258932659E-03 
1113	 0.003331354136664 
1114	 3.28532311868568E-03 
1115	 3.2831488344203E-03 
1116	 3.05733793842175E-03 
1117	 2.34860108320886E-03 
1118	 2.43589882059355E-03 
1119	 3.19552820211961E-03 
1120	 3.02667249221065E-03 
1121	 2.25405853970951E-03 
1122	 3.49948293827131E-03 
1123	 4.67062623923096E-03 
1124	 3.11766408454401E-03 
1125	 2.46268636313442E-03 
1126	 2.73446924620155E-03 
1127	 2.60338555382231E-03 
1128	 3.94085210544968E-03 
1129	 4.2024179755497E-03 
1130	 6.12455396760476E-03 
1131	 5.45007453792966E-03 
1132	 1.24942742845495E-03 
1133	 1.28214228739379E-03 
1134	 3.8049131393436E-03 
1135	 3.7934993768197E-03 
1136	 4.20527213840747E-03 
1137	 4.02492060454219E-03 
1138	 2.18892372597804E-03 
1139	 6.46020008215773E-04 
1140	 1.20003122671813E-03 
1141	 2.84959833631729E-03 
1142	 4.7812481597739E-03 
1143	 5.04590830357084E-03 
1144	 3.78098424916402E-03 
1145	 3.47459618069655E-03 
1146	 3.19849593487105E-03 
1147	 2.93619537920408E-03 
1148	 3.81028782940914E-03 
1149	 3.9421168644901E-03 
1150	 3.90063684967032E-03 
1151	 4.00908984292111E-03 
1152	 3.47175148167578E-03 
1153	 1.63369795677745E-03 
1154	 1.65825754905435E-03 
1155	 2.18433644847536E-03 
1156	 2.66724563403485E-03 
1157	 2.83628347200713E-03 
1158	 3.05384856491531E-03 
1159	 3.07972872653339E-03 
1160	 2.52384062005231E-03 
1161	 2.21403245958699E-03 
1162	 2.47027386931702E-03 
1163	 2.0768579122417E-03 
1164	 1.91357109479826E-03 
1165	 2.76372327723209E-03 
1166	 3.34562268214664E-03 
1167	 3.32305290513997E-03 
1168	 3.08339314011583E-03 
1169	 2.59941902506457E-03 
1170	 2.26046104755987E-03 
1171	 2.14437859860748E-03 
1172	 2.58424004214536E-03 
1173	 2.58662917724769E-03 
1174	 2.45856280991764E-03 
1175	 2.32119277303579E-03 
1176	 2.0565341672932E-03 
1177	 2.16713125963689E-03 
1178	 2.4356281700797E-03 
1179	 2.51234932260997E-03 
1180	 2.58836084286917E-03 
1181	 2.44949390728754E-03 
1182	 2.24627895927731E-03 
1183	 2.43208688693551E-03 
1184	 2.52398111266283E-03 
1185	 2.30630258266764E-03 
1186	 2.43227802427982E-03 
1187	 2.44401826202187E-03 
1188	 0.002051397206009 
1189	 2.13490197515466E-03 
1190	 2.45595245621561E-03 
1191	 2.19629478903834E-03 
1192	 2.09817872651576E-03 
1193	 2.14849775691302E-03 
1194	 2.40365200408637E-03 
1195	 2.15749099362452E-03 
1196	 2.24362595054297E-03 
1197	 2.34642886744777E-03 
1198	 2.15065187330226E-03 
1199	 2.24122887130661E-03 
1200	 2.0936160814679E-03 
1201	 2.02482742563227E-03 
1202	 2.19061838233168E-03 
1203	 2.04053297518214E-03 
1204	 2.07443649076789E-03 
1205	 2.30499657879314E-03 
1206	 2.21596459468997E-03 
1207	 2.06822758743042E-03 
1208	 2.05170947809523E-03 
1209	 1.95128858654504E-03 
1210	 1.99512099936515E-03 
1211	 2.25364462239575E-03 
1212	 2.26386743411375E-03 
1213	 2.14545124768172E-03 
1214	 2.1493885441494E-03 
1215	 2.17559417240605E-03 
1216	 2.09481518793671E-03 
1217	 2.02358679085543E-03 
1218	 2.1211934826297E-03 
1219	 2.14614108494234E-03 
1220	 1.99718090102859E-03 
1221	 2.11885811292856E-03 
1222	 2.28119989966206E-03 
1223	 1.9902351062737E-03 
1224	 1.99546956345262E-03 
1225	 2.28618628347725E-03 
1226	 2.25686892707323E-03 
1227	 2.42667978271337E-03 
1228	 2.58023143607782E-03 
1229	 2.29912305087025E-03 
1230	 2.18947950857682E-03 
1231	 2.16486974464591E-03 
1232	 2.10102123639093E-03 
1233	 2.27839611129506E-03 
1234	 2.43132530222712E-03 
1235	 2.42086518375683E-03 
1236	 2.2733280765579E-03 
1237	 2.2027170580718E-03 
1238	 2.02170828083347E-03 
1239	 1.95373884121377E-03 
1240	 2.07097931728004E-03 
1241	 2.21485280959495E-03 
1242	 2.1039480209293E-03 
1243	 1.90017270740824E-03 
1244	 2.01167545766233E-03 
1245	 2.19625208797719E-03 
1246	 2.19925213423332E-03 
1247	 2.18842561667034E-03 
1248	 2.08479092274945E-03 
1249	 2.00823996185151E-03 
1250	 2.08982701696316E-03 
1251	 2.18527065778926E-03 
1252	 2.24608752169036E-03 
1253	 2.26744396468562E-03 
1254	 2.32024972903413E-03 
1255	 2.50751722225118E-03 
1256	 2.57417106979848E-03 
1257	 2.39908141861074E-03 
1258	 2.29303115414061E-03 
1259	 2.2936948774496E-03 
1260	 2.27431696894665E-03 
1261	 2.1543132430449E-03 
1262	 2.11971541638906E-03 
1263	 2.10748706954132E-03 
1264	 2.15725800447572E-03 
1265	 2.4207674428805E-03 
1266	 2.5779422159062E-03 
1267	 2.54576669008576E-03 
1268	 2.48993369964697E-03 
1269	 2.30804028887011E-03 
1270	 2.1714397271676E-03 
1271	 2.20038273140904E-03 
1272	 2.3542142401254E-03 
1273	 2.36703306789932E-03 
1274	 2.26927965557043E-03 
1275	 2.29356202435732E-03 
1276	 2.19168094656015E-03 
1277	 2.04363382461649E-03 
1278	 1.97688721208143E-03 
1279	 1.84768689948125E-03 
1280	 1.98337922590037E-03 
1281	 2.13065305673218E-03 
1282	 2.39178964219061E-03 
1283	 2.33530186513296E-03 
1284	 2.17452118096545E-03 
1285	 2.23390443063593E-03 
1286	 2.17997963805194E-03 
1287	 2.13766799720515E-03 
1288	 2.44592075431214E-03 
1289	 2.4797160561793E-03 
1290	 2.14436052920997E-03 
1291	 1.9655978385511E-03 
1292	 2.05512110283112E-03 
1293	 2.00059620206717E-03 
1294	 2.1532300024062E-03 
1295	 2.43270755197583E-03 
1296	 0.00229137345833 
1297	 2.14159522302393E-03 
1298	 0.002157243112263 
1299	 1.98614173439774E-03 
1300	 1.97970443149282E-03 
1301	 2.13272534558163E-03 
1302	 2.07981716961978E-03 
1303	 2.13143387774921E-03 
1304	 2.39297939803269E-03 
1305	 2.48527845481203E-03 
1306	 2.55536211746176E-03 
1307	 2.36204697979944E-03 
1308	 2.35730859794153E-03 
1309	 2.59220616980978E-03 
1310	 2.56486461707311E-03 
1311	 2.24998141972362E-03 
1312	 2.15807154045459E-03 
1313	 2.07148188861771E-03 
1314	 2.00425171798832E-03 
1315	 2.16360773847732E-03 
1316	 2.18823451089272E-03 
1317	 1.91374311376728E-03 
1318	 1.97781151835663E-03 
1319	 2.53715165753997E-03 
1320	 2.5929336504223E-03 
1321	 2.60477622409032E-03 
1322	 2.27440853706883E-03 
1323	 1.88016514651908E-03 
1324	 1.65330979951499E-03 
1325	 1.74612333866548E-03 
1326	 2.21699256149372E-03 
1327	 2.41382031040227E-03 
1328	 2.47294562707906E-03 
1329	 2.4708256307092E-03 
1330	 2.02383052427093E-03 
1331	 1.99677799268806E-03 
1332	 2.20179375449338E-03 
1333	 1.9190485708429E-03 
1334	 2.4177865545609E-03 
1335	 2.78898906730792E-03 
1336	 0.003276406312671 
1337	 2.98247225597159E-03 
1338	 2.30781466989294E-03 
1339	 2.27398771321144E-03 
1340	 1.88165053623262E-03 
1341	 1.6363441693435E-03 
1342	 2.39323615082587E-03 
1343	 2.6426716877591E-03 
1344	 1.86935284403722E-03 
1345	 1.85201569659834E-03 
1346	 3.15137634127561E-03 
1347	 3.5743590561122E-03 
1348	 2.10140788250344E-03 
1349	 2.50381555634975E-03 
1350	 6.74319356539835E-03 
1351	 8.57397601936409E-03 
1352	 7.08843581985149E-03 
1353	 1.29349027045243E-02 
1354	 2.94924831267845E-02 
1355	 3.59325055964737E-02 
1356	 0.033531779033068 
1357	 0.060279745929325 
1358	 7.63834875957238E-02 
1359	 5.33504839940661E-02 
1360	 0.085794190991923 
1361	 0.152052306580233 
1362	 0.147490803074133 
1363	 9.22468023496701E-02 
1364	 6.27022780747237E-02 
1365	 7.47999995230045E-02 
1366	 8.10349520872743E-02 
1367	 8.77289344320819E-02 
1368	 0.114441869365848 
1369	 0.170355237452659 
1370	 0.19787699920248 
1371	 0.20957624387493 
1372	 0.302062224990675 
1373	 0.741153585227369 
1374	 0.854118698231387 
1375	 0.496766031984865 
1376	 0.547661509172845 
1377	 0.70202185824823 
1378	 0.520977427874167 
1379	 0.248761957171357 
1380	 0.33130462356571 
1381	 0.562777671012684 
1382	 0.422894487871493 
1383	 0.377670777641456 
1384	 0.650237162903409 
1385	 0.72812056550405 
1386	 0.568822956473839 
1387	 0.49144288729952 
1388	 0.608642569570931 
1389	 0.423980028069636 
1390	 0.219290784969583 
1391	 0.214019343389653 
1392	 0.579685723782403 
1393	 0.627187498604337 
1394	 0.276064567642815 
1395	 0.689566308178273 
1396	 0.884765199212462 
1397	 0.381768009961871 
1398	 0.327566183106754 
1399	 0.388411311769888 
1400	 0.221335416211304 
1401	 0.326078940287335 
1402	 0.430109415712444 
1403	 0.336440898896385 
1404	 0.414568262106802 
1405	 0.321174209185607 
1406	 0.143411942985551 
1407	 0.104957362129659 
1408	 0.10302305956332 
1409	 9.75495168579988E-02 
1410	 0.116785516277062 
1411	 0.109131368256764 
1412	 0.101943947052683 
1413	 7.82879545808751E-02 
1414	 2.64812466336842E-02 
1415	 2.63833838481538E-02 
1416	 5.18503820111975E-02 
1417	 5.08010099126262E-02 
1418	 5.57193867909306E-02 
1419	 5.19695812461205E-02 
1420	 3.77666032795736E-02 
1421	 3.00398247480077E-02 
1422	 2.56272071024211E-02 
1423	 2.26979830540108E-02 
1424	 0.020278641438351 
1425	 1.74744152565906E-02 
1426	 1.20709983313593E-02 
1427	 1.16221135207224E-02 
1428	 1.76091504305323E-02 
1429	 1.63232401091606E-02 
1430	 1.05539800854804E-02 
1431	 1.02965116540673E-02 
1432	 1.01091564762808E-02 
1433	 6.92100281925857E-03 
1434	 3.12133976837192E-03 
1435	 4.95216240165309E-03 
1436	 1.07152174180483E-02 
1437	 9.96628144814952E-03 
1438	 1.82358916423912E-03 
1439	 6.03458132490752E-03 
1440	 1.18629929966668E-02 
1441	 7.45304192056432E-03 
1442	 1.06932054626703E-02 
1443	 1.45969965927186E-02 
1444	 8.51943045139925E-03 
1445	 4.3011768011118E-03 
1446	 3.50314151585357E-03 
1447	 4.31297150498295E-03 
1448	 6.15998557049365E-03 
1449	 6.03286400825613E-03 
1450	 5.39808935918422E-03 
1451	 4.14232212265681E-03 
1452	 2.33478098483241E-03 
1453	 1.86203257486054E-03 
1454	 2.10633563899553E-03 
1455	 3.6138366752356E-03 
1456	 3.2564924852307E-03 
1457	 2.35849025529358E-03 
1458	 2.48351979304772E-03 
1459	 2.22686237719431E-03 
1460	 2.45976219600336E-03 
1461	 3.99519766602373E-03 
1462	 4.13334596851198E-03 
1463	 3.06051233897432E-03 
1464	 3.00711138845956E-03 
1465	 3.75126357824065E-03 
1466	 3.48552701792764E-03 
1467	 2.41563498098486E-03 
1468	 2.29995251584844E-03 
1469	 2.1903574462991E-03 
1470	 1.65779386406733E-03 
1471	 1.47009813454343E-03 
1472	 2.36730412066701E-03 
1473	 3.21416707702115E-03 
1474	 3.32667303414226E-03 
1475	 4.64513703996875E-03 
1476	 4.83397430574084E-03 
1477	 3.22308360094297E-03 
1478	 3.00377303565825E-03 
1479	 3.5850154631451E-03 
1480	 3.60775334158399E-03 
1481	 3.48617445391607E-03 
1482	 3.54498098427279E-03 
1483	 3.82671511981008E-03 
1484	 3.70031778917133E-03 
1485	 3.40689820737502E-03 
1486	 3.29974293571231E-03 
1487	 3.04515942233476E-03 
1488	 2.73638793804217E-03 
1489	 2.50473419975111E-03 
1490	 2.47012555620373E-03 
1491	 2.55301544761442E-03 
1492	 2.35632177918159E-03 
1493	 2.10025440491513E-03 
1494	 2.02965693357837E-03 
1495	 1.73291988212247E-03 
1496	 1.63507367177549E-03 
1497	 1.88773478351458E-03 
1498	 1.97784690866899E-03 
1499	 1.91708833185577E-03 
1500	 1.96644396210529E-03 
1501	 2.33586126218154E-03 
1502	 2.26560604697221E-03 
1503	 1.66939920029044E-03 
1504	 1.64240016780663E-03 
1505	 1.89840986947397E-03 
1506	 1.75403094482501E-03 
1507	 1.61748908112916E-03 
1508	 1.75260562525514E-03 
1509	 1.98713969810127E-03 
1510	 1.89594646043299E-03 
1511	 1.59598960840858E-03 
1512	 1.67464682494688E-03 
1513	 1.70373755732376E-03 
1514	 1.50802661845157E-03 
1515	 1.53119303049029E-03 
1516	 1.78169252950512E-03 
1517	 1.90336801964067E-03 
1518	 1.7641652276806E-03 
1519	 1.63405712210971E-03 
1520	 1.73864459599419E-03 
1521	 1.88545888668411E-03 
1522	 1.71734833970916E-03 
1523	 1.61587739399685E-03 
1524	 1.82824565770921E-03 
1525	 1.93191311832435E-03 
1526	 1.87097640285696E-03 
1527	 1.81654399022521E-03 
1528	 1.85041691231087E-03 
1529	 0.001851695272783 
1530	 1.64112034504293E-03 
1531	 1.67156338059848E-03 
1532	 1.88901934785637E-03 
1533	 1.68666279042916E-03 
1534	 1.63758117463163E-03 
1535	 1.79288833918008E-03 
1536	 1.57639813548375E-03 
1537	 1.49077933685977E-03 
1538	 1.62708228616383E-03 
1539	 1.61353139844665E-03 
1540	 1.67884239874442E-03 
1541	 1.89359881917452E-03 
1542	 1.8841474817077E-03 
1543	 1.67732635562956E-03 
1544	 1.68668999449124E-03 
1545	 1.78659772272121E-03 
1546	 1.6979654932757E-03 
1547	 1.62097567579032E-03 
1548	 1.61398023741207E-03 
1549	 1.58804411698916E-03 
1550	 1.56493750135297E-03 
1551	 1.35131969037526E-03 
1552	 1.18772437214619E-03 
1553	 1.35387702643641E-03 
1554	 1.34937676202304E-03 
1555	 1.35600268160137E-03 
1556	 1.71599858277666E-03 
1557	 1.6809619702545E-03 
1558	 1.3862343399736E-03 
1559	 1.56918247789517E-03 
1560	 1.75016635010903E-03 
1561	 1.64183429302962E-03 
1562	 1.5808759755048E-03 
1563	 1.63325017183475E-03 
1564	 1.60436611681761E-03 
1565	 1.57257034609802E-03 
1566	 1.69927975500217E-03 
1567	 1.6861979426693E-03 
1568	 1.64727244237894E-03 
1569	 1.50748480914216E-03 
1570	 1.21647260079013E-03 
1571	 1.22118667759337E-03 
1572	 1.25941238348542E-03 
1573	 1.26229795292793E-03 
1574	 1.52391641816678E-03 
1575	 1.70826967624854E-03 
1576	 1.61516709154589E-03 
1577	 1.65794872723553E-03 
1578	 1.73930481944983E-03 
1579	 1.64529815341048E-03 
1580	 1.61124982120212E-03 
1581	 1.53606882902879E-03 
1582	 1.55693820801648E-03 
1583	 1.75531673900862E-03 
1584	 1.82492203698349E-03 
1585	 1.82194586900465E-03 
1586	 1.7819535321534E-03 
1587	 1.89616991576013E-03 
1588	 1.87616600009677E-03 
1589	 1.53140579035685E-03 
1590	 1.61267604132709E-03 
1591	 1.67472253784698E-03 
1592	 1.34925934159627E-03 
1593	 1.38494287896594E-03 
1594	 1.65877370359228E-03 
1595	 1.70828945444633E-03 
1596	 1.75324096149661E-03 
1597	 1.85665828272107E-03 
1598	 1.76883888253456E-03 
1599	 1.76240962398549E-03 
1600	 1.89397677056539E-03 
1601	 1.80217923561324E-03 
1602	 1.73041243673723E-03 
1603	 1.73719827418125E-03 
1604	 1.50391075980734E-03 
1605	 1.45194467033665E-03 
1606	 1.53643246881357E-03 
1607	 1.35159881044982E-03 
1608	 1.32880864452943E-03 
1609	 1.40604859241392E-03 
1610	 1.28191410591179E-03 
1611	 1.34116602943887E-03 
1612	 1.63624533336216E-03 
1613	 1.67407671766162E-03 
1614	 1.69700664386685E-03 
1615	 1.86065169950456E-03 
1616	 1.73880599663685E-03 
1617	 1.60699788028122E-03 
1618	 1.75946070685447E-03 
1619	 1.85284169348617E-03 
1620	 1.7682987244969E-03 
1621	 1.86064453872602E-03 
1622	 1.86984911408971E-03 
1623	 1.53825236682115E-03 
1624	 1.36762012626677E-03 
1625	 1.52153548201687E-03 
1626	 1.6555727506641E-03 
1627	 1.66319628756952E-03 
1628	 1.75168739348803E-03 
1629	 1.83446865355576E-03 
1630	 1.73532194730235E-03 
1631	 1.69219830631224E-03 
1632	 1.91007487567873E-03 
1633	 1.89534756702597E-03 
1634	 1.67112868986532E-03 
1635	 1.91077559658262E-03 
1636	 0.002010740864774 
1637	 1.73710926695746E-03 
1638	 1.78301664596534E-03 
1639	 1.68952971795409E-03 
1640	 1.44268266804193E-03 
1641	 1.56372084683393E-03 
1642	 1.59164417410207E-03 
1643	 1.57267700970101E-03 
1644	 1.52130763253973E-03 
1645	 0.001320193875686 
1646	 1.54797355673733E-03 
1647	 1.86340444785325E-03 
1648	 1.83892578151992E-03 
1649	 1.61475109294277E-03 
1650	 1.46307498308519E-03 
1651	 1.82099709930551E-03 
1652	 2.12885415128798E-03 
1653	 1.92168286621003E-03 
1654	 1.93619420905545E-03 
1655	 1.55071593379667E-03 
1656	 1.38762336749986E-03 
1657	 1.7118953662683E-03 
1658	 1.74155358140403E-03 
1659	 1.48321384274856E-03 
1660	 1.51364983453116E-03 
1661	 1.68964585908978E-03 
1662	 1.57020508341604E-03 
1663	 1.40462746348981E-03 
1664	 1.48888999681255E-03 
1665	 0.001519953649831 
1666	 1.61542227271189E-03 
1667	 1.97047463533514E-03 
1668	 1.78673222033982E-03 
1669	 1.84708078473802E-03 
1670	 1.9619880368355E-03 
1671	 1.83825832477641E-03 
1672	 1.75806253203107E-03 
1673	 1.68024457658106E-03 
1674	 1.82295213946499E-03 
1675	 2.11013691172011E-03 
1676	 1.88247369353311E-03 
1677	 1.69482259121442E-03 
1678	 1.96582290444162E-03 
1679	 1.81219858468722E-03 
1680	 1.61755500780109E-03 
1681	 1.94255565913897E-03 
1682	 1.96136812187308E-03 
1683	 1.74047471136314E-03 
1684	 1.97828314173858E-03 
1685	 2.13751796728169E-03 
1686	 1.76158562612697E-03 
1687	 1.6603895075776E-03 
1688	 1.84123579170541E-03 
1689	 1.65095323744184E-03 
1690	 1.46008501128447E-03 
1691	 1.62121258712439E-03 
1692	 1.7274955321635E-03 
1693	 1.80128469266175E-03 
1694	 2.16819649459869E-03 
1695	 2.12108328922803E-03 
1696	 1.53498183707623E-03 
1697	 1.2206356031004E-03 
1698	 1.2584207497727E-03 
1699	 1.58153394082136E-03 
1700	 1.87631579277329E-03 
1701	 1.8872003524402E-03 
1702	 1.94278436037649E-03 
1703	 1.87119087881203E-03 
1704	 1.8918763120235E-03 
1705	 2.07802913170776E-03 
1706	 1.83207121994873E-03 
1707	 1.86228254672001E-03 
1708	 2.38112384628775E-03 
1709	 2.54540367602576E-03 
1710	 2.55385943519476E-03 
1711	 2.28674535461475E-03 
1712	 1.66651625765054E-03 
1713	 1.94936375934364E-03 
1714	 1.91996445821451E-03 
1715	 1.89127302106905E-03 
1716	 2.19516335641723E-03 
1717	 1.92716826351786E-03 
1718	 1.92915318941138E-03 
1719	 2.14614551301452E-03 
1720	 1.67758649972618E-03 
1721	 1.51999015765156E-03 
1722	 0.002067410414846 
1723	 2.23629097161792E-03 
1724	 2.18404782866204E-03 
1725	 2.43211747603675E-03 
1726	 2.19158168659609E-03 
1727	 1.59518071446192E-03 
1728	 1.52365170574691E-03 
1729	 1.82143312607774E-03 
1730	 1.89011515509119E-03 
1731	 1.50578169763324E-03 
1732	 1.09235905202815E-03 
1733	 6.31551333536369E-04 
1734	 7.44182013665011E-04 
1735	 1.73485435683098E-03 
1736	 2.26482621986606E-03 
1737	 1.99718172158978E-03 
1738	 1.18825513127891E-03 
1739	 6.02199357621715E-04 
1740	 1.16575119843774E-03 
1741	 1.73022198608238E-03 
1742	 2.12612945030047E-03 
1743	 2.37311786437754E-03 
1744	 1.22119708779626E-03 
1745	 6.54667109594011E-04 
1746	 1.66575434873247E-03 
1747	 1.66347334442431E-03 
1748	 1.97975302486931E-03 
1749	 2.13983491417835E-03 
1750	 1.1411159230046E-03 
1751	 1.14327538559895E-03 
1752	 2.19804634377561E-03 
1753	 2.37555601680563E-03 
1754	 2.37968288866457E-03 
1755	 2.56748000909764E-03 
1756	 2.22762010720566E-03 
1757	 1.74532393605539E-03 
1758	 2.42106519766234E-03 
1759	 2.40304878288357E-03 
1760	 2.3997046414301E-03 
1761	 2.37725721336296E-03 
1762	 1.25475709575133E-03 
1763	 5.52076764909237E-04 
1764	 7.60660498694137E-04 
1765	 1.90521274294717E-03 
1766	 3.39479563806461E-03 
1767	 3.78703488685074E-03 
1768	 3.20809660325677E-03 
1769	 1.77267558750306E-03 
1770	 8.81769727254867E-04 
1771	 1.38957895564406E-03 
1772	 2.18132914038632E-03 
1773	 3.14945027485251E-03 
1774	 3.23868720785834E-03 
1775	 2.03996507988652E-03 
1776	 1.99861526094416E-03 
1777	 3.2152118154157E-03 
1778	 3.44008627377697E-03 
1779	 3.64223357392412E-03 
1780	 3.20835945131169E-03 
1781	 1.05555278332943E-03 
1782	 1.17408850495121E-03 
1783	 2.70868164472702E-03 
1784	 2.6305210775013E-03 
1785	 2.98843710072311E-03 
1786	 2.61987252194582E-03 
1787	-1.03456680000874E-04 
1788	 1.00486225220072E-03 
1789	 6.00087983544066E-03 
1790	 6.66272982594487E-03 
1791	 4.7045553024527E-03 
1792	 1.46706938583168E-03 
1793	-5.55370068728819E-04 
1794	 6.0646277421872E-04 
1795	 3.47635974109369E-03 
1796	 8.1486412875618E-03 
1797	 1.05747667353888E-02 
1798	 0.010378327353968 
1799	 1.46096342484726E-02 
1800	 5.88114926264358E-03 
1801	 3.35286262220895E-03 
1802	 7.81541086148011E-03 
1803	 7.6056892672009E-03 
1804	 9.22260103185157E-03 
1805	 1.41586005724798E-02 
1806	 0.018362826061014 
1807	 2.24163579012756E-02 
1808	 3.93008677843957E-02 
1809	 4.32012083037874E-02 
1810	 1.08883174144601E-02 
1811	 0.013820939974371 
1812	 5.17913984416641E-02 
1813	 5.28801627923832E-02 
1814	 0.043087553664679 
1815	 8.39781647894752E-02 
1816	 8.74225174192549E-02 
1817	 0.41164269976211 
1818	 0.587148664502154 
1819	 0.565775027129088 
1820	 0.485595945275058 
1821	-9.09256339634855E-02 
1822	-0.257019876660598 
1823	 0.412605030052803 
1824	 0.728256445557505 
1825	 1.42842230894328 
1826	 1.41024024411663 
1827	 0.215635552678523 
1828	-4.72228657736789E-02 
1829	-0.446056349446795 
1830	-0.438442088408875 
1831	-6.19558967218053 
1832	 4.49255689259072 
1833	 1.49674041776512 
1834	 1.27641965495351 
1835	 1.27196666853044 
1836	 1.23104315324706 
1837	 1.18468387030231 
1838	 1.93988808740879 
1839	-3.49835288051255 
1840	-2.37386937866928 
1841	-1.72324030772508 
1842	-0.346088055453214 
1843	-0.2153308748857 
1844	-0.325167935553445 
1845	-0.246789159302883 
1846	-1.04460128519523 
1847	-0.765424758173569 
1848	-0.117962191477263 
1849	 0.364006129216368 
1850	 0.819068864423676 
1851	 1.07425813437903 
1852	 1.58130666882225 
1853	-15.0109079585881 
1854	-2.43074164912185 
1855	-0.595862856978387 
1856	-0.529300108803498 
1857	-1.66568446273758 
1858	-1.59941231900912 
1859	 8.20973164997788 
1860	 8.09015469001865 
1861	 0.201892969765609 
1862	 9.87145461163086E-02 
1863	-1.13854631647934 
1864	-48.9683925810862 
1865	-3.03550155504153 
1866	 1.15296974839051 
1867	 1.45147196065926 
1868	 0.325049273888759 
1869	 0.313804086731597 
1870	 0.123256391489053 
1871	 0.428030832016422 
1872	 0.593472649631346 
1873	 0.141435930694188 
1874	 0.449000400210527 
1875	 1.08837578325948 
1876	 1.40852464344786 
1877	 2.13266995371081 
1878	 2.09180332459631 
1879	 1.16166337804313 
1880	 0.716440686039291 
1881	 0.310448049461234 
1882	 5.01489598866946E-02 
1883	-0.364236453908899 
1884	-1.29889445690953 
1885	 3.171642081329 
1886	-10.728885436761 
1887	-1.45226936660768 
1888	-0.776673354825161 
1889	-0.621635551947426 
1890	 0.178794942260213 
1891	 5.22188421769571E-02 
1892	-0.164128244258068 
1893	-1.8535197653838 
1894	 0.716441813338413 
1895	 4.26544974064777 
1896	 0.276472444637494 
1897	 0.405885152619742 
1898	 0.44244544185895 
1899	-0.139031247338642 
1900	-4.38408049502146E-02 
1901	 0.262669309012459 
1902	 0.417782590183297 
1903	 0.953888533319938 
1904	 65.8330535669326 
1905	-1.7224516981648 
1906	-0.307853549791569 
1907	 0.6839438096393 
1908	 1.28394347756719 
1909	 0.537786601166957 
1910	 13.0297071885596 
1911	-2.18361457360298 
1912	-5.80128066434224 
1913	-17.9169433660477 
1914	-13.9196516580777 
1915	-24.3028047613793 
1916	 1.24918769974548 
1917	 9.31468159272513E-02 
1918	 2.04293167935898 
1919	 4.08083214154559 
1920	 3.06904314293475 
1921	 2.03441213311925 
1922	 2.42962603928505 
1923	-38.1444305568087 
1924	 2.1264210283118 
1925	 1.24425125495795 
1926	 0.876206293081311 
1927	 0.279165489165193 
1928	-5.79683762456977E-02 
1929	 0.272126191397705 
1930	 0.523030010067844 
1931	 0.311418235210825 
1932	 0.34756928953797 
1933	 0.204880402033209 
1934	 0.151275591649402 
1935	 0.343942786148472 
1936	 0.31142636279543 
1937	 0.189892437221946 
1938	 0.10832373611298 
1939	 9.65382742344049E-02 
1940	 8.82850929982061E-02 
1941	 0.115105393823608 
1942	 0.132235524087856 
1943	 0.111717471302264 
1944	 5.41928455115218E-02 
1945	 3.05695688784535E-02 
1946	 2.81887860586281E-02 
1947	 3.77673138251789E-02 
1948	 3.28949459270436E-02 
1949	 9.45817143403507E-03 
1950	 2.22523239473104E-03 
1951	-7.47566470660218E-03 
1952	-6.30031411890542E-03 
1953	 3.14792692011572E-03 
1954	 2.77788832715918E-02 
1955	 4.06737814353219E-02 
1956	 4.88270549138179E-02 
1957	 4.17968105655231E-02 
1958	 2.15546522040826E-02 
1959	 1.11659611296958E-02 
1960	 3.22004016885304E-03 
1961	-7.72392949270162E-04 
1962	 4.2704452559252E-03 
1963	 6.61045346297559E-03 
1964	 5.01713283053087E-03 
1965	 3.14157947213462E-03 
1966	 1.90495169143443E-03 
1967	-3.47537770182112E-04 
1968	-1.00880421662644E-03 
1969	 9.23093897036503E-05 
1970	 1.82784548924721E-04 
1971	 6.96755762763884E-05 
1972	-1.01207372432943E-03 
1973	-4.27917858786926E-03 
1974	-3.71140438668361E-03 
1975	 3.12957123200864E-04 
1976	 1.00536077583469E-03 
1977	 1.73069739323381E-03 
1978	 3.78655358290496E-03 
1979	 4.38068477358124E-03 
1980	 3.01971126122773E-03 
1981	 2.95920269682785E-03 
1982	 3.91720175598308E-03 
1983	 3.48838178682672E-03 
1984	 2.6706673866027E-03 
1985	 3.11873293090193E-03 
1986	 4.37720119712808E-03 
1987	 3.85850475499625E-03 
1988	 3.15223453533477E-03 
1989	 3.85927634333087E-03 
1990	 3.14126688345844E-03 
1991	 1.68124020820543E-03 
1992	 1.38505382601203E-03 
1993	 6.37188644538447E-04 
1994	 9.88679490746908E-05 
1995	-6.05307207554387E-04 
1996	 4.8448587509628E-04 
1997	 9.68421494046043E-04 
1998	 7.53751094389484E-05 
1999	-4.29502412473116E-04 
2000	 6.36586140218359E-04 
2001	 2.81412578807232E-03 
2002	 3.5451314568311E-03 
2003	 3.17122698284932E-03 
2004	 1.93644688428445E-03 
2005	-1.23903242946644E-03 
2006	-3.41077755375809E-03 
2007	-7.89555490859116E-04 
2008	 3.57195307502556E-03 
2009	 4.42989618184319E-03 
2010	 3.9730917899978E-03 
2011	 5.05472529658876E-03 
2012	 5.09956601266646E-03 
2013	 3.35946737135754E-03 
2014	 5.19941330142029E-03 
2015	 6.95126724650082E-03 
2016	 6.2588893726535E-03 
2017	 4.93695940295988E-03 
2018	 3.45535254591436E-03 
2019	 2.67867629156751E-03 
2020	 3.39964129219945E-03 
2021	 3.00541008277371E-03 
2022	 2.09457230343964E-03 
2023	 2.83436184730139E-03 
2024	 2.88828526710521E-03 
2025	 2.59001780840589E-03 
2026	 2.46797861343772E-03 
2027	 2.8677706145703E-03 
2028	 2.01322798118463E-03 
2029	 1.33316092563848E-03 
2030	 5.44266905336313E-04 
2031	 5.7928219841375E-05 
2032	 1.10849839630494E-03 
2033	 1.71556453066402E-03 
2034	 1.81091007036025E-03 
2035	 2.67310814171073E-03 
2036	 2.29786093631941E-03 
2037	 9.7703338941199E-04 
2038	 6.99903718935607E-04 
2039	 7.97628094672731E-04 
2040	 9.80541874654003E-04 
2041	 1.01177578368033E-03 
2042	 2.03867302416282E-03 
2043	 2.41660048762391E-03 
2044	 2.06877068344445E-03 
2045	 1.73338110842466E-03 
2046	 2.45434580770384E-03 
2047	 2.31060613287235E-03 
2048	 2.7881925475851E-03 
2049	 3.7587813741547E-03 
2050	 2.83336125617565E-03 
2051	 2.3112371722851E-03 
2052	 2.15721108483985E-03 
2053	 0.001276895511787 
2054	 9.68319058441756E-04 
2055	 1.70614031918141E-03 
2056	 2.3509922717294E-03 
2057	 2.76728955583155E-03 
2058	 2.87882801585592E-03 
2059	 3.55617536264658E-03 
2060	 4.15287286713956E-03 
2061	 4.11361214327748E-03 
2062	 4.30119241530411E-03 
2063	 0.005853778178305 
2064	 6.06635104230657E-03 
2065	 5.09517624890422E-03 
2066	 5.14493465175731E-03 
2067	 4.92312406365995E-03 
2068	 5.04346183475711E-03 
2069	 5.33812004773025E-03 
2070	 4.7539698995984E-03 
2071	 4.78173144788094E-03 
2072	 4.36668067237743E-03 
2073	 3.97169496221403E-03 
2074	 3.95025461984462E-03 
2075	 3.64184619445525E-03 
2076	 2.8559255585285E-03 
2077	 2.46211500056208E-03 
2078	 2.01539449136311E-03 
2079	 2.03766233068056E-03 
2080	 2.87807978440448E-03 
2081	 2.32516457390513E-03 
2082	 1.7853009778885E-03 
2083	 0.002065019293809 
2084	 1.77957675041366E-03 
2085	 2.04083134981314E-03 
2086	 2.08674387549912E-03 
2087	 1.8006710821706E-03 
2088	 1.72423660512436E-03 
2089	 1.47309851240206E-03 
2090	 1.56890511234149E-03 
2091	 1.34079105843767E-03 
2092	 1.32897809378189E-03 
2093	 1.35971526405274E-03 
2094	 1.32472144817821E-03 
2095	 1.02323378623156E-03 
2096	 1.1704398378226E-03 
2097	 1.52551631807601E-03 
2098	 1.5505893743418E-03 
2099	 1.53275818859832E-03 
2100	 2.43295969949153E-03 
2101	 2.42239670701873E-03 
2102	 1.19442090631412E-03 
2103	 1.30645452598947E-03 
2104	 1.77981910902242E-03 
2105	 1.36961697613116E-03 
2106	 1.80698627784951E-03 
2107	 1.51901206798638E-03 
2108	 7.01008833580116E-04 
2109	 1.60915827413608E-03 
2110	 2.59335054315718E-03 
2111	 2.44011898978458E-03 
2112	 2.25795466126248E-03 
2113	 2.00175835725257E-03 
2114	 7.88598018162074E-04 
2115	 6.67266089728418E-05 
2116	-2.73077689665241E-04 
2117	-4.63377412491116E-04 
2118	-7.35451570151447E-04 
2119	-8.35094897714482E-04 
2120	-6.92144698759602E-04 
2121	-3.14672262337517E-04 
2122	 3.4724135313583E-04 
2123	 1.50170571746212E-03 
2124	 2.0027578598213E-03 
2125	 2.28980391415078E-03 
2126	 2.5597302687515E-03 
2127	 1.85836294525814E-03 
2128	 1.34575450853008E-03 
2129	 1.66057865815477E-03 
2130	 1.70501211836065E-03 
2131	 1.11911857688169E-03 
2132	 1.14839611974732E-03 
2133	 1.88368144908571E-03 
2134	 2.28300169519652E-03 
2135	 3.01340247616129E-03 
2136	 2.92130026169437E-03 
2137	 2.28382632354219E-03 
2138	 1.70995135308308E-03 
2139	 1.36973708589095E-04 
2140	-3.38593165077217E-04 
2141	 6.51760807309782E-05 
2142	 2.30743968952498E-04 
2143	 3.071301950212E-04 
2144	 1.27456308672729E-03 
2145	 2.39038912167367E-03 
2146	 2.43350020875384E-03 
2147	 2.85172217657897E-03 
2148	 2.96746443811134E-03 
2149	 2.87287900285057E-03 
2150	 3.45069705078909E-03 
2151	 3.64486035312877E-03 
2152	 3.33966127756107E-03 
2153	 3.12714255965413E-03 
2154	 2.93041499498573E-03 
2155	 2.24508760111559E-03 
2156	 2.29757936518506E-03 
2157	 2.50969208488099E-03 
2158	 2.99788812639124E-03 
2159	 2.58696463610434E-03 
2160	 1.61104602828108E-03 
2161	 1.66185382689662E-03 
2162	 1.87730286455972E-03 
2163	 1.42139905988686E-03 
2164	 1.69567337193056E-03 
2165	 1.95192695650507E-03 
2166	 9.03422035501849E-04 
2167	 5.35162309420583E-04 
2168	 1.4543382207246E-03 
2169	 1.83955979229087E-03 
2170	 2.02117367253336E-03 
2171	 1.32955547770686E-03 
2172	 1.67746450852948E-03 
2173	 2.59666151403441E-03 
2174	 2.41653182735639E-03 
2175	 2.0451489974009E-03 
2176	 1.56012310528976E-03 
2177	-4.49722980759713E-06 
2178	-5.73298858435058E-04 
2179	-2.94384392443395E-04 
2180	 3.50172133693342E-04 
2181	 1.28363188059962E-03 
2182	 0.001622317165312 
2183	 2.40747714942002E-03 
2184	 0.003547357291957 
2185	 3.85649194284196E-03 
2186	 3.8534313923397E-03 
2187	 3.55305150274291E-03 
2188	 3.36318243298073E-03 
2189	 1.90243857235003E-03 
2190	 2.15065098098174E-03 
2191	 3.98032829120279E-03 
2192	 4.16075756956992E-03 
2193	 4.38012834029908E-03 
2194	 4.9164224246868E-03 
2195	 4.84611311748968E-03 
2196	 4.14394224972619E-03 
2197	 3.23541168086982E-03 
2198	 3.07660252966397E-03 
2199	 2.5718034687996E-03 
2200	 1.47108562466374E-03 
2201	 2.19274376025878E-03 
2202	 4.17622145367903E-03 
2203	 3.84841117777512E-03 
2204	 2.61849151070133E-03 
2205	 3.86088379718291E-03 
2206	 3.99148271849635E-03 
2207	 1.42496395367675E-03 
2208	 1.6286354222728E-03 
2209	 3.1068642645099E-03 
2210	 2.09161160769737E-03 
2211	 2.29851755904515E-03 
2212	 3.32460568423911E-03 
2213	 2.24864827702752E-03 
2214	 1.37288943525772E-03 
2215	 2.78363260903185E-03 
2216	 4.47416501142807E-03 
2217	 4.38683875417108E-03 
2218	 3.10409062125383E-03 
2219	 3.58159031945109E-03 
2220	 3.76742722789384E-03 
2221	 3.5139561923166E-03 
2222	 4.72972513578525E-03 
2223	 4.24749192842455E-03 
2224	 1.01448935581561E-03 
2225	 4.63850865832726E-06 
2226	 5.58138710799707E-04 
2227	 2.58609327770278E-04 
2228	-5.51063770024741E-04 
2229	-1.71171679979791E-04 
2230	 8.02895108584134E-04 
2231	 1.67091083569072E-03 
2232	 4.69862658469147E-03 
2233	 5.17991311221242E-03 
2234	 4.34780554800114E-03 
2235	 1.68272271197235E-03 
2236	 4.70350715508415E-04 
2237	 3.94893490758885E-04 
2238	 2.02139811621312E-03 
2239	 4.57708051862402E-03 
2240	 4.32829223430801E-03 
2241	 2.78345698437438E-03 
2242	 2.37536321399936E-03 
2243	 7.50058488771431E-04 
2244	 9.08727977156385E-04 
2245	 3.58102314519411E-03 
2246	 3.25290522912612E-03 
2247	 3.68311148471558E-03 
2248	 5.63008592243506E-03 
2249	 3.19547813232576E-03 
2250	 2.19085681112387E-04 
2251	 7.59619187036471E-04 
2252	-1.09984713517518E-03 
2253	-1.78270632799452E-03 
2254	 2.72208168416446E-03 
2255	 2.33806314453396E-03 
2256	-3.38200794915201E-05 
2257	 1.24665095684525E-03 
2258	 8.99266989213387E-04 
2259	 1.30567672101098E-03 
2260	 8.16798611711548E-04 
2261	 1.31757150261098E-03 
2262	-3.31638076640751E-04 
2263	-0.005516752280348 
2264	-6.87974112502999E-03 
2265	-5.96091871125023E-03 
2266	-5.04518263726387E-03 
2267	-2.08087522424753E-03 
2268	-1.80919037769006E-03 
2269	-3.6154098063182E-03 
2270	-3.27010057497399E-03 
2271	-3.64752313753751E-03 
2272	-2.80483735762271E-03 
2273	 9.90496108879762E-04 
2274	 2.35193889246438E-03 
2275	 4.26784911229401E-03 
2276	 5.24330907088435E-03 
2277	 3.87928254711667E-03 
2278	 3.1792055731207E-03 
2279	-1.12581930603136E-04 
2280	-1.12747919542475E-03 
2281	-6.22644773782103E-04 
2282	 1.87671234189271E-03 
2283	 7.11147272871276E-04 
2284	 1.67734684561738E-03 
2285	 3.05794024797146E-03 
2286	 3.73577727271397E-03 
2287	 7.83268144472242E-03 
2288	 7.69048354195023E-03 
2289	 2.3016101380541E-03 
2290	 1.49785229712213E-03 
2291	 3.53772385816031E-04 
2292	 1.66518442532178E-03 
2293	 5.89816809165668E-03 
2294	 4.93421823906947E-03 
2295	 3.32134813733676E-03 
2296	 1.47242310578373E-03 
2297	-9.32091717834587E-04 
2298	-2.0924509540068E-03 
2299	-3.20389030547497E-03 
2300	-2.76845977710689E-03 
2301	-4.19550711242561E-04 
2302	-3.09614105255342E-04 
2303	-7.66990738589971E-04 
2304	 2.56768398601528E-03 
2305	 4.43001039199635E-03 
2306	 4.3898541783531E-03 
2307	 6.19635478478233E-03 
2308	 5.41464121640863E-03 
2309	 4.48251926922558E-03 
2310	 5.2993471721692E-03 
2311	 2.75871496268004E-03 
2312	-3.62534282766093E-04 
2313	-4.78357883050064E-04 
2314	 4.13433501191318E-04 
2315	-3.0452010541565E-04 
2316	 1.85650869748232E-04 
2317	-5.71389732575736E-04 
2318	-2.1065650988642E-03 
2319	 3.21390600781726E-03 
2320	 8.22439374518568E-03 
2321	 6.85302558655201E-03 
2322	 2.12732365783714E-03 
2323	-1.96418224616657E-03 
2324	-2.63665086960393E-03 
2325	-2.97962714923637E-03 
2326	-2.73108077486852E-03 
2327	-1.16955624202866E-03 
2328	 1.68981390164998E-03 
2329	 8.78667156585846E-03 
2330	 1.34532513683425E-02 
2331	 1.32703492167823E-02 
2332	 9.62310116484613E-03 
2333	 4.21655090651642E-03 
2334	 9.8516941976013E-04 
2335	-2.4414181815973E-03 
2336	-3.23664446313518E-03 
2337	-2.88256996347223E-03 
2338	-3.5225042449841E-03 
2339	 1.31567127523088E-04 
2340	 6.44499117810554E-03 
2341	 8.77327684806186E-03 
2342	 8.6945525811101E-03 
2343	 9.48721449054045E-03 
2344	 5.82751798918255E-03 
2345	 8.81377825529605E-04 
2346	 4.03584058197138E-03 
2347	 2.49952232380519E-03 
2348	-8.3948985919226E-03 
2349	-9.52916907918534E-03 
2350	-5.79338986759852E-03 
2351	-5.17120369815286E-03 
2352	 3.97314066517879E-03 
2353	 1.20348675712798E-02 
2354	 4.04710973573934E-03 
2355	-2.02909956942566E-03 
2356	 4.87701712402537E-03 
2357	 9.31234487507757E-03 
2358	 4.54923003174336E-03 
2359	 4.91072281606064E-03 
2360	 8.46610543224823E-03 
2361	 8.18575386714162E-03 
2362	 1.04710148670643E-02 
2363	 1.11864230979303E-02 
2364	 1.25151862041519E-02 
2365	 9.53639780702451E-03 
2366	 1.44465162257609E-02 
2367	 2.50581940979246E-02 
2368	 1.15868796805399E-02 
2369	 2.68883477079868E-03 
2370	 5.74528320282567E-03 
2371	-1.25017714064693E-03 
2372	-2.04611509949731E-03 
2373	 4.17584523554453E-03 
2374	 2.31365733008354E-04 
2375	-2.16282591041008E-03 
2376	-5.65698803890026E-03 
2377	-2.51214618037368E-02 
2378	-2.73116632698164E-02 
2379	-2.13210468530114E-02 
2380	-2.32948135867139E-02 
2381	-8.35334455170296E-03 
2382	 3.17818618053722E-03 
2383	 1.26308550926822E-02 
2384	 0.032974677342174 
2385	 5.14930790813649E-02 
2386	 6.01576419665985E-02 
2387	 3.94081195088337E-02 
2388	 7.41489245164496E-03 
2389	-2.23230006358378E-03 
2390	 9.63565342306041E-03 
2391	 2.36096635708452E-02 
2392	 2.84864695986308E-02 
2393	 2.39159027071372E-02 
2394	 5.43612869704486E-03 
2395	-3.35609079200598E-03 
2396	-2.33621523839297E-03 
2397	-9.96205787619013E-03 
2398	-0.01797246854617 
2399	-1.74848637162369E-02 
2400	-1.18024032080974E-02 
2401	-0.016512853083878 
2402	-1.32958246811799E-02 
2403	-1.85511667288123E-02 
2404	-2.97346663738218E-02 
2405	 4.97709752962518E-03 
2406	-4.4968072298144E-03 
2407	-1.99589730179764E-02 
2408	 4.34116664780191E-03 
2409	-3.83353018185698E-02 
2410	-4.57317253340538E-02 
2411	-2.80233905684554E-02 
2412	-0.106292175777673 
2413	-0.114191883891717 
2414	-3.81214230523016E-02 
2415	-5.72638815689193E-02 
2416	-6.57815201126737E-02 
2417	 0.014620406823708 
2418	-4.34121542662336E-03 
2419	-2.20775848407802E-02 
2420	 3.47910538708676E-02 
2421	 3.48655035240598E-02 
2422	 5.04236104897543E-02 
2423	 0.116142371802311 
2424	 0.16319963580467 
2425	 0.123121498953496 
2426	 7.25467731566858E-02 
2427	 4.43577893686761E-02 
2428	 1.30857245388136E-03 
2429	 8.56940148960325E-02 
2430	 0.149066784015521 
2431	 7.96924583204139E-02 
2432	 2.63827040586044E-02 
2433	-5.71147913646595E-02 
2434	-0.116683461946604 
2435	-7.12656535207084E-02 
2436	 7.0569140718838E-03 
2437	 7.54305226659615E-02 
2438	 2.93555275894441E-02 
2439	 1.43496810127131E-02 
2440	 7.79930618185186E-02 
2441	 8.50672348616555E-02 
2442	 0.235810486307157 
2443	 0.327071567965485 
2444	 0.19012900023827 
2445	 0.242494101426329 
2446	 0.299444712904885 
2447	 0.232659854471326 
2448	 0.370587219941417 
2449	 0.380371025211191 
2450	 0.289388083375916 
2451	 0.954828124864596 
2452	 0.472041930075282 
2453	 0.210726965096158 
2454	 0.311853186020285 
2455	-0.217799084902586 
2456	-0.181525894633438 
2457	 0.229810722018864 
2458	 4.66773279807869E-02 
2459	-0.223346778038785 
2460	-0.278706269761579 
2461	-0.346892073593928 
2462	-0.408900252218319 
2463	-0.358598572366847 
2464	-0.279545157343957 
2465	-0.462151792513417 
2466	-0.606209507311641 
2467	-0.502808841206777 
2468	-2.94351998817543 
2469	-7.66537899037121 
2470	-0.308329210590624 
2471	-0.435756622807659 
2472	-0.307997726354545 
2473	-0.146962648807815 
2474	-0.394356703084693 
2475	-3.83063702244954E-02 
2476	 0.382619155047347 
2477	 1.36128621747255 
2478	-0.455532496373589 
2479	 2.17162039823536 
2480	 0.874669475305163 
2481	 0.605289251829658 
2482	-0.139477878616539 
2483	-0.259836048404904 
2484	-0.58676580468866 
2485	-0.870653014755118 
2486	 7.61035617447721E-02 
2487	 0.959063360298859 
2488	 0.782132641602577 
2489	 0.516202276573138 
2490	 0.50021426991226 
2491	 0.333940393004046 
2492	-1.29761428894084E-02 
2493	 5.16932189338076E-02 
2494	-0.226412827929602 
2495	-0.544212973742163 
2496	-1.26396268574644 
2497	-0.905448864052022 
2498	-0.229611078503244 
2499	-0.124052683757003 
2500	 7.17128798721726E-04 
