Wavelength	rt0718far00001.asd
350	 2.47056692701134E-02 
351	 0.024756703155923 
352	 2.48393522929558E-02 
353	 0.024961847985868 
354	 0.025156918306101 
355	 2.55438646663451E-02 
356	 0.025363374949976 
357	 2.52797393358237E-02 
358	 0.025946931289082 
359	 2.60604210704537E-02 
360	 2.58100399295448E-02 
361	 2.55167732365596E-02 
362	 2.55239468914301E-02 
363	 2.58713282693459E-02 
364	 2.58953418817225E-02 
365	 2.56073434368467E-02 
366	 2.61426969760016E-02 
367	 2.63790219088112E-02 
368	 2.62310932881297E-02 
369	 0.026026223537425 
370	 2.65576084948326E-02 
371	 2.64546823296392E-02 
372	 2.59638789469994E-02 
373	 2.61689283429863E-02 
374	 2.62607246674345E-02 
375	 2.66205228507231E-02 
376	 2.72165339533373E-02 
377	 2.73304336500026E-02 
378	 2.71264368707635E-02 
379	 2.71073413529368E-02 
380	 2.75580076368245E-02 
381	 2.79003715049434E-02 
382	 2.78253918637983E-02 
383	 2.75695024206794E-02 
384	 0.027642510362352 
385	 2.82637021228585E-02 
386	 2.87256667973744E-02 
387	 2.87858300321744E-02 
388	 2.88099141310387E-02 
389	 2.90652568677204E-02 
390	 2.92124197875434E-02 
391	 2.90693014432259E-02 
392	 2.90949551062404E-02 
393	 2.93462279828721E-02 
394	 0.029661286742936 
395	 2.98401876754275E-02 
396	 2.99767587633598E-02 
397	 3.01950152798653E-02 
398	 3.04002604250677E-02 
399	 0.03034627701865 
400	 3.05146639512625E-02 
401	 3.07034507411685E-02 
402	 3.07526585407172E-02 
403	 3.08245615492658E-02 
404	 3.09383901332696E-02 
405	 3.10586809806532E-02 
406	 3.11520900142634E-02 
407	 3.13655138325389E-02 
408	 3.14491241175261E-02 
409	 3.14082785362057E-02 
410	 3.15124855810089E-02 
411	 3.19172670060104E-02 
412	 3.22053218847461E-02 
413	 3.21799189729435E-02 
414	 3.23933689884662E-02 
415	 3.26647005051557E-02 
416	 3.28979182927239E-02 
417	 3.30332366312429E-02 
418	 3.30265504206652E-02 
419	 3.32648285114814E-02 
420	 3.37207745771577E-02 
421	 3.39147159694735E-02 
422	 3.40086630511325E-02 
423	 0.034203996664005 
424	 3.45466236286599E-02 
425	 3.46051937743013E-02 
426	 0.034811170283994 
427	 3.51567460098003E-02 
428	 0.035447440476581 
429	 3.58585126097776E-02 
430	 3.61090710965232E-02 
431	 3.62361188222134E-02 
432	 0.036679248962889 
433	 3.69077176688536E-02 
434	 3.71249056965223E-02 
435	 3.75301370913735E-02 
436	 3.78225274968329E-02 
437	 3.80967899784599E-02 
438	 3.84352106981115E-02 
439	 3.88715231468686E-02 
440	 3.90939416251605E-02 
441	 3.93303955780347E-02 
442	 3.96904244164339E-02 
443	 0.04002629616857 
444	 4.03182542736639E-02 
445	 4.06226020148108E-02 
446	 0.040973987942121 
447	 4.12195222589648E-02 
448	 4.15371370331926E-02 
449	 4.18659425786227E-02 
450	 4.19991143277554E-02 
451	 4.22714088560825E-02 
452	 4.25400914727399E-02 
453	 4.27068772569502E-02 
454	 4.28983081498033E-02 
455	 0.04317239685549 
456	 4.34037364706119E-02 
457	 4.34800641941925E-02 
458	 4.37668710028476E-02 
459	 4.39456079372277E-02 
460	 4.40148521691537E-02 
461	 4.43024397316745E-02 
462	 4.44358810654637E-02 
463	 4.45643028005769E-02 
464	 4.48043021735539E-02 
465	 4.48811124880655E-02 
466	 4.50618917880363E-02 
467	 4.52995147008058E-02 
468	 4.54261862163392E-02 
469	 4.56234858935874E-02 
470	 4.58074145749179E-02 
471	 4.59559882489367E-02 
472	 4.61588016509902E-02 
473	 4.63989978826579E-02 
474	 4.66159250546044E-02 
475	 4.67859053886725E-02 
476	 4.70686873733104E-02 
477	 4.72486551730659E-02 
478	 4.74423118439539E-02 
479	 0.047925937393812 
480	 4.80273084595653E-02 
481	 4.81368393902166E-02 
482	 4.84934179402841E-02 
483	 4.87365333958727E-02 
484	 4.90189643871328E-02 
485	 4.93238455808641E-02 
486	 4.96092483413303E-02 
487	 5.00208207322145E-02 
488	 5.03231139820772E-02 
489	 5.05392791361961E-02 
490	 5.09402807685187E-02 
491	 5.11788605080166E-02 
492	 5.14279661564501E-02 
493	 0.05183991498875 
494	 5.22460352287645E-02 
495	 5.26394690145966E-02 
496	 5.29850052743521E-02 
497	 5.32670336972957E-02 
498	 0.053700887868686 
499	 5.41261447432697E-02 
500	 5.44929029785587E-02 
501	 5.49852753498113E-02 
502	 5.53181311068179E-02 
503	 5.56690481878204E-02 
504	 5.62241379780347E-02 
505	 5.66593280364639E-02 
506	 0.056992637922644 
507	 5.73335571661468E-02 
508	 5.78313320720187E-02 
509	 5.81742052609801E-02 
510	 5.85050161813614E-02 
511	 5.89478897538265E-02 
512	 5.94216192102804E-02 
513	 5.98540036871424E-02 
514	 0.060282178447697 
515	 6.07890873945173E-02 
516	 6.13795549988604E-02 
517	 6.20202256621994E-02 
518	 6.26272640789479E-02 
519	 6.30719787338214E-02 
520	 6.35416460009784E-02 
521	 6.40573961016415E-02 
522	 6.46043815899725E-02 
523	 6.51886050696088E-02 
524	 6.57592309133115E-02 
525	 6.63260469478775E-02 
526	 6.69358766257345E-02 
527	 6.74958224710012E-02 
528	 6.80355869561406E-02 
529	 0.068591588047857 
530	 6.91818197497819E-02 
531	 0.069779023612578 
532	 7.03753104576479E-02 
533	 7.09640479886798E-02 
534	 7.15108603637908E-02 
535	 7.20928172212528E-02 
536	 7.27293636416116E-02 
537	 7.33648979595785E-02 
538	 7.39589923010657E-02 
539	 0.074524340460491 
540	 7.51064218412825E-02 
541	 7.58182018246067E-02 
542	 7.64247690927633E-02 
543	 7.69437331383043E-02 
544	 0.077542304470782 
545	 0.078119392715374 
546	 7.87254036925716E-02 
547	 7.93553004686882E-02 
548	 7.98534532408544E-02 
549	 8.04694913034684E-02 
550	 8.11207570975856E-02 
551	 8.16551818750517E-02 
552	 8.22517423094916E-02 
553	 8.28483795227023E-02 
554	 8.34261185476805E-02 
555	 8.40258584424097E-02 
556	 8.46453818922203E-02 
557	 8.52374372121901E-02 
558	 8.57776526580512E-02 
559	 8.63824137833176E-02 
560	 8.69058736237576E-02 
561	 8.73760180614674E-02 
562	 8.79141749826507E-02 
563	 8.83458863543051E-02 
564	 8.88174486041676E-02 
565	 8.93592594244992E-02 
566	 8.96970826376504E-02 
567	 9.00369470816895E-02 
568	 9.04301125297599E-02 
569	 9.08437782512769E-02 
570	 9.11109241930942E-02 
571	 9.13632625470942E-02 
572	 9.16436053997213E-02 
573	 9.18776950616878E-02 
574	 9.20136587175738E-02 
575	 9.21180606690855E-02 
576	 9.22268468249542E-02 
577	 9.21707520506916E-02 
578	 9.21568321758609E-02 
579	 9.21633715099359E-02 
580	 9.20339292616325E-02 
581	 9.18034631578562E-02 
582	 9.15901590115362E-02 
583	 9.14005042943536E-02 
584	 9.10105017151528E-02 
585	 9.06891101607449E-02 
586	 9.03688949035124E-02 
587	 8.99034612189394E-02 
588	 8.94668609140369E-02 
589	 8.90538980740075E-02 
590	 8.86084304360088E-02 
591	 8.80155904204499E-02 
592	 8.74422343239173E-02 
593	 8.67623964117999E-02 
594	 0.085888444139243 
595	 8.50034379613928E-02 
596	 8.38957670001723E-02 
597	 8.26329272165364E-02 
598	 8.14377804402633E-02 
599	 8.02402996380113E-02 
600	 0.079175209757442 
601	 7.83256798294019E-02 
602	 7.76418583702699E-02 
603	 7.71812038502707E-02 
604	 7.68890166691482E-02 
605	 7.66854245638605E-02 
606	 7.65565487461577E-02 
607	 7.64391376943777E-02 
608	 7.63641932192062E-02 
609	 7.64480597616823E-02 
610	 7.63769612487348E-02 
611	 7.62424505619588E-02 
612	 7.61731198514356E-02 
613	 7.61358264548109E-02 
614	 0.076090060106048 
615	 7.60186056096532E-02 
616	 7.59287629506739E-02 
617	 7.58894668787086E-02 
618	 7.58334259909037E-02 
619	 7.57306429751973E-02 
620	 7.56338976486126E-02 
621	 7.55561559272556E-02 
622	 7.55119741925589E-02 
623	 7.54822532524717E-02 
624	 7.52991852280715E-02 
625	 7.51641095251779E-02 
626	 7.51097218889673E-02 
627	 7.50007910033416E-02 
628	 7.49115820939734E-02 
629	 7.48691590429801E-02 
630	 7.48503271569352E-02 
631	 7.47273187329649E-02 
632	 7.45876451567011E-02 
633	 7.44467715681492E-02 
634	 7.42955760854686E-02 
635	 0.0742069148037 
636	 7.41336172989202E-02 
637	 7.40379029325235E-02 
638	 7.39116468986726E-02 
639	 7.37718852479368E-02 
640	 0.073623638513356 
641	 7.34678846722313E-02 
642	 7.32972523307619E-02 
643	 7.31224335775059E-02 
644	 7.29493529045396E-02 
645	 7.27798825817311E-02 
646	 7.25936496976527E-02 
647	 7.23927543780403E-02 
648	 7.21701695560566E-02 
649	 7.18767796232738E-02 
650	 7.16137164989219E-02 
651	 7.12963118594337E-02 
652	 7.08072943309463E-02 
653	 7.02622497533752E-02 
654	 6.97136768781985E-02 
655	 6.90756750046267E-02 
656	 6.81825463280425E-02 
657	 6.74555342704121E-02 
658	 0.066846134603591 
659	 6.62583118465838E-02 
660	 6.58692507749175E-02 
661	 6.54772302525255E-02 
662	 6.50930049279989E-02 
663	 6.48445038695598E-02 
664	 6.44998834374261E-02 
665	 6.42305257455524E-02 
666	 6.41001884885342E-02 
667	 6.38988087641687E-02 
668	 0.063717755060296 
669	 6.35543826974671E-02 
670	 6.33934837502026E-02 
671	 6.33014521285046E-02 
672	 6.31462572170655E-02 
673	 6.29723584525509E-02 
674	 6.29811977849607E-02 
675	 6.29750428005746E-02 
676	 6.29222566307378E-02 
677	 6.28398131075979E-02 
678	 6.27807167158947E-02 
679	 6.27187995991861E-02 
680	 6.26734802857504E-02 
681	 6.26679801045734E-02 
682	 6.26151246336526E-02 
683	 0.062535524565668 
684	 6.24643400777758E-02 
685	 6.24397036898181E-02 
686	 6.22954846143931E-02 
687	 6.20854806664891E-02 
688	 6.19029907545707E-02 
689	 6.16260956923328E-02 
690	 6.12655724200936E-02 
691	 0.060819796224611 
692	 6.02752342643546E-02 
693	 5.96748033216001E-02 
694	 5.90156893382376E-02 
695	 5.83196879266369E-02 
696	 5.75865155081061E-02 
697	 5.67469805483663E-02 
698	 5.58789982490351E-02 
699	 5.50845092324553E-02 
700	 5.40825550388917E-02 
701	 0.052954245414145 
702	 5.18333958874291E-02 
703	 5.08244037474157E-02 
704	 4.97024923140578E-02 
705	 4.85154044958989E-02 
706	 0.047320549859582 
707	 4.60258524106257E-02 
708	 4.46703394976221E-02 
709	 4.32514821899654E-02 
710	 4.17638027549537E-02 
711	 0.040274765343446 
712	 3.87540753292798E-02 
713	 3.71903605263859E-02 
714	 3.55629754631085E-02 
715	 0.034056472193918 
716	 3.25098225114701E-02 
717	 3.08536730441728E-02 
718	 2.92428860071276E-02 
719	 2.76374323552983E-02 
720	 2.62432561592807E-02 
721	 2.50069892292296E-02 
722	 2.38349487385368E-02 
723	 2.25871801704171E-02 
724	 2.13589229874602E-02 
725	 2.01775410099399E-02 
726	 1.90491514360253E-02 
727	 1.78787699027148E-02 
728	 1.66385289945215E-02 
729	 1.54722060975649E-02 
730	 1.43440614451611E-02 
731	 1.34352370280098E-02 
732	 1.28694485815218E-02 
733	 1.22353387892149E-02 
734	 1.16482259453862E-02 
735	 1.12153995714517E-02 
736	 1.09711189415218E-02 
737	 0.01082973876037 
738	 1.06670514980554E-02 
739	 1.04392177441213E-02 
740	 1.03480541730245E-02 
741	 1.02913981844629E-02 
742	 1.02436911742912E-02 
743	 1.02162151503708E-02 
744	 1.01738056432167E-02 
745	 1.01586018293492E-02 
746	 1.01507823488195E-02 
747	 0.010038715090331 
748	 9.98475003481488E-03 
749	 9.96658684434765E-03 
750	 9.94408832962546E-03 
751	 9.99878797415231E-03 
752	 9.94962804613542E-03 
753	 9.85510238860577E-03 
754	 9.8836762573836E-03 
755	 9.9105626645909E-03 
756	 9.91491130660641E-03 
757	 9.92307155478349E-03 
758	 1.00427365853531E-02 
759	 1.00525787072824E-02 
760	 1.00160591507693E-02 
761	 1.01327770676525E-02 
762	 1.01347574887871E-02 
763	 1.00958084565967E-02 
764	 0.010023127776081 
765	 9.9254317960633E-03 
766	 9.90752712902311E-03 
767	 9.91593386969039E-03 
768	 9.90925475392697E-03 
769	 9.86021125879462E-03 
770	 9.92624589899779E-03 
771	 9.99020041981285E-03 
772	 9.96815559830487E-03 
773	 1.00241979199341E-02 
774	 1.00690276760751E-02 
775	 1.01079591330264E-02 
776	 1.01790900048296E-02 
777	 1.02724742255864E-02 
778	 1.02681250805709E-02 
779	 1.02024990671948E-02 
780	 1.02693378827926E-02 
781	 1.04530419124422E-02 
782	 1.05896624686059E-02 
783	 1.05950821831416E-02 
784	 1.06146607855118E-02 
785	 1.07292372663833E-02 
786	 1.09344237866493E-02 
787	 1.11482778593482E-02 
788	 1.11354792542777E-02 
789	 0.011161197967561 
790	 1.12840592879526E-02 
791	 1.13820226168253E-02 
792	 1.15438976124073E-02 
793	 1.17174354964762E-02 
794	 1.18512641471193E-02 
795	 1.19203398189441E-02 
796	 1.21030387490165E-02 
797	 1.22309643297857E-02 
798	 1.21950404643913E-02 
799	 1.24247979056005E-02 
800	 1.25701630177562E-02 
801	 1.26295625053049E-02 
802	 1.27743029850172E-02 
803	 1.28387310618532E-02 
804	 1.28166282709573E-02 
805	 1.27813024158649E-02 
806	 1.28646876867275E-02 
807	 1.29476047032395E-02 
808	 1.29754704365188E-02 
809	 1.29346627095093E-02 
810	 1.28871558897318E-02 
811	 1.27065408499117E-02 
812	 1.25365710407923E-02 
813	 1.25700329186409E-02 
814	 1.25222122043761E-02 
815	 1.23408622357672E-02 
816	 1.20694402109691E-02 
817	 1.18335185901017E-02 
818	 1.18161590472123E-02 
819	 1.16173947810052E-02 
820	 0.011207300227221 
821	 1.10846418560189E-02 
822	 1.06951749688155E-02 
823	 1.02815895303578E-02 
824	 1.00618340510631E-02 
825	 9.66284276845287E-03 
826	 9.43867135165757E-03 
827	 9.21098749837509E-03 
828	 8.70780989394421E-03 
829	 8.28985860794539E-03 
830	 8.07237081786422E-03 
831	 0.007975357002619 
832	 7.80929151121764E-03 
833	 7.66526631802894E-03 
834	 7.60392890346448E-03 
835	 7.6327410583459E-03 
836	 7.69653316163379E-03 
837	 7.46500899567756E-03 
838	 7.23419290709873E-03 
839	 7.24925475699943E-03 
840	 7.25424188834433E-03 
841	 7.33764542571729E-03 
842	 7.38076743168976E-03 
843	 7.23785932780875E-03 
844	 6.93984161036336E-03 
845	 7.01006574532458E-03 
846	 7.32258162485966E-03 
847	 7.33000717768846E-03 
848	 7.19552071136589E-03 
849	 7.03053773134323E-03 
850	 6.93010925216124E-03 
851	 6.94979381356769E-03 
852	 6.92707095117091E-03 
853	 6.90924544288107E-03 
854	 6.92791594606572E-03 
855	 6.88590387719626E-03 
856	 6.81792369963964E-03 
857	 6.72408736040455E-03 
858	 6.63654713942886E-03 
859	 6.7421437078722E-03 
860	 6.76186264418718E-03 
861	 6.74988219128189E-03 
862	 6.89553507024167E-03 
863	 7.09407390266351E-03 
864	 6.98845048619621E-03 
865	 6.65233697643804E-03 
866	 6.53889992349665E-03 
867	 6.46355158562843E-03 
868	 6.46133611218971E-03 
869	 6.51987131902593E-03 
870	 6.54314003960786E-03 
871	 6.56657079954731E-03 
872	 6.64997962817834E-03 
873	 6.75601545635323E-03 
874	 6.62260068998193E-03 
875	 6.4833841800336E-03 
876	 6.34525167986562E-03 
877	 6.21230393593075E-03 
878	 6.3223335955184E-03 
879	 6.6572553020533E-03 
880	 6.7812561802344E-03 
881	 6.31384824692961E-03 
882	 6.19764382035054E-03 
883	 6.46770374127172E-03 
884	 6.65027144988128E-03 
885	 6.12764902086573E-03 
886	 6.04830867578906E-03 
887	 6.1469420551531E-03 
888	 6.26375611761808E-03 
889	 6.51432007391906E-03 
890	 6.48141839156532E-03 
891	 6.25548548696188E-03 
892	 6.08084005435354E-03 
893	 6.29525571865629E-03 
894	 6.38036585239955E-03 
895	 6.33579528975984E-03 
896	 6.24593095378617E-03 
897	 5.92842002189604E-03 
898	 6.15054972933949E-03 
899	 6.28591266266662E-03 
900	 5.79926925520892E-03 
901	 6.18759757187142E-03 
902	 6.5086363382824E-03 
903	 6.26520234809345E-03 
904	 5.50010785921931E-03 
905	 5.77135479149142E-03 
906	 6.36989573418111E-03 
907	 6.60439536350894E-03 
908	 6.07861902685528E-03 
909	 6.09337834423505E-03 
910	 6.07311801464712E-03 
911	 6.11159812942394E-03 
912	 6.8274469525775E-03 
913	 6.57523128915603E-03 
914	 6.03289297565779E-03 
915	 5.86601671723998E-03 
916	 6.21099939118006E-03 
917	 5.88755747053217E-03 
918	 5.4815349803239E-03 
919	 5.48825233902894E-03 
920	 5.88007903788162E-03 
921	 5.91809690089638E-03 
922	 5.75351652808022E-03 
923	 5.69393973501194E-03 
924	 5.96999019875783E-03 
925	 6.13916943193228E-03 
926	 6.29456249139575E-03 
927	 6.29617515979798E-03 
928	 4.45060510608331E-03 
929	 4.41197946576415E-03 
930	 5.97225261121516E-03 
931	 6.88167181450196E-03 
932	 8.6979407746585E-03 
933	 6.86730887711903E-03 
934	 4.19490820023464E-03 
935	 5.05338637091713E-03 
936	 2.1220287928413E-03 
937	 3.22709243025707E-03 
938	 5.84404779801461E-03 
939	 5.63177576833341E-03 
940	 4.23987805145311E-03 
941	 4.44111494795675E-03 
942	 5.54482608080003E-03 
943	 5.60840886733265E-03 
944	 7.08511010703217E-03 
945	 6.67819839122747E-03 
946	 5.13104829000104E-03 
947	 5.3946897564348E-03 
948	 6.71557390529509E-03 
949	 5.37207227561707E-03 
950	 3.47290630689918E-03 
951	 5.53238273375608E-03 
952	 6.76990553461739E-03 
953	 5.65523695863979E-03 
954	 5.18208657253735E-03 
955	 8.95964266297513E-03 
956	 5.21933289662457E-03 
957	 3.14345021130941E-03 
958	 5.07301872558539E-03 
959	 6.78016518531385E-03 
960	 5.1332718814347E-03 
961	 3.08027053491826E-03 
962	 2.63940034015242E-03 
963	 4.01738556861799E-03 
964	 4.78757756705693E-03 
965	 6.35781877275939E-03 
966	 7.53152435144153E-03 
967	 5.77503970719004E-03 
968	 4.53352042260454E-03 
969	 5.07142823455401E-03 
970	 6.33973851800191E-03 
971	 5.87654282820618E-03 
972	 4.62371956610674E-03 
973	 4.76851358981786E-03 
974	 6.02624006498949E-03 
975	 5.8164786448685E-03 
976	 4.82894196929131E-03 
977	 4.58279922992595E-03 
978	 4.78076565043931E-03 
979	 3.98697561248295E-03 
980	 5.74185438874242E-03 
981	 6.4132837903126E-03 
982	 4.94359256065512E-03 
983	 3.33167003195857E-03 
984	 4.58474928693166E-03 
985	 5.3194760375778E-03 
986	 5.01379964761629E-03 
987	 5.58430560210554E-03 
988	 4.90453870982935E-03 
989	 5.14748613410339E-03 
990	 6.00946204781484E-03 
991	 5.47407087102049E-03 
992	 5.47554739365855E-03 
993	 4.37273831281512E-03 
994	 3.62347434406172E-03 
995	 5.78420465097925E-03 
996	 5.64214468487993E-03 
997	 5.25156236956095E-03 
998	 5.45859523327326E-03 
999	 5.88318478516355E-03 
1000	 5.77884165000855E-03 
1001	 4.73063857316687E-03 
1002	 5.52844779672378E-03 
1003	 5.6570202753448E-03 
1004	 5.3931396034642E-03 
1005	 5.41071331762375E-03 
1006	 5.28103348676889E-03 
1007	 5.15535731023097E-03 
1008	 5.3313511275831E-03 
1009	 5.40151463615924E-03 
1010	 5.2902945558186E-03 
1011	 4.87107837671698E-03 
1012	 4.54325363865309E-03 
1013	 4.3720255534381E-03 
1014	 4.28340977183779E-03 
1015	 4.31159076374753E-03 
1016	 4.45254285996453E-03 
1017	 4.74844668693542E-03 
1018	 5.00463498339311E-03 
1019	 5.43973755876308E-03 
1020	 5.61828123648697E-03 
1021	 5.88788552923198E-03 
1022	 5.74772437699962E-03 
1023	 5.02713702564896E-03 
1024	 4.88646867554775E-03 
1025	 4.8577195664446E-03 
1026	 4.72386937954006E-03 
1027	 4.7956808310092E-03 
1028	 5.32258473457601E-03 
1029	 5.3538923909745E-03 
1030	 5.1481993933521E-03 
1031	 5.10547791692319E-03 
1032	 4.87927630555069E-03 
1033	 4.95335126352832E-03 
1034	 5.37348109272899E-03 
1035	 5.48275040028208E-03 
1036	 5.62910742367433E-03 
1037	 5.66228284298044E-03 
1038	 5.4977594184615E-03 
1039	 5.22319377054614E-03 
1040	 5.18123835403571E-03 
1041	 5.17236981709359E-03 
1042	 5.19916514293155E-03 
1043	 5.39190350796338E-03 
1044	 5.33672393217542E-03 
1045	 5.17256770207934E-03 
1046	 5.08453413049875E-03 
1047	 4.77297790160638E-03 
1048	 4.77238584274313E-03 
1049	 5.11565142653065E-03 
1050	 5.15583952135603E-03 
1051	 5.08827562521821E-03 
1052	 5.18153818314618E-03 
1053	 5.27656589076731E-03 
1054	 5.28517657975055E-03 
1055	 5.53142003522966E-03 
1056	 5.54261937322586E-03 
1057	 5.39838841450052E-03 
1058	 4.87998150217981E-03 
1059	 4.77446405908524E-03 
1060	 4.63719396439353E-03 
1061	 4.75383789892235E-03 
1062	 5.29328904666482E-03 
1063	 5.43307062198353E-03 
1064	 5.55339982324515E-03 
1065	 5.58545108571597E-03 
1066	 5.30221533483831E-03 
1067	 5.24439302209396E-03 
1068	 5.38369964494642E-03 
1069	 5.35030204100444E-03 
1070	 5.34452997107378E-03 
1071	 5.21185805207695E-03 
1072	 4.85462782128485E-03 
1073	 4.5289641203819E-03 
1074	 4.36320790659359E-03 
1075	 4.13036873267916E-03 
1076	 4.28791229479852E-03 
1077	 4.8347218442984E-03 
1078	 5.01402584651223E-03 
1079	 5.38981267658071E-03 
1080	 5.40905953845968E-03 
1081	 4.97600197957798E-03 
1082	 4.87267332040817E-03 
1083	 4.66800752433735E-03 
1084	 4.67772572495342E-03 
1085	 5.16289414765984E-03 
1086	 5.17989335688212E-03 
1087	 4.92847417292618E-03 
1088	 4.87153532492087E-03 
1089	 4.60966802149229E-03 
1090	 4.38834018359601E-03 
1091	 4.44230931630965E-03 
1092	 5.04737833490258E-03 
1093	 5.01220866924036E-03 
1094	 4.55469708347895E-03 
1095	 4.58761133369531E-03 
1096	 4.71199236543089E-03 
1097	 4.66869831798597E-03 
1098	 4.90284845892234E-03 
1099	 5.0728846589504E-03 
1100	 4.90586668145861E-03 
1101	 4.73199428034372E-03 
1102	 4.69985114125286E-03 
1103	 4.7120925115427E-03 
1104	 4.46116694482497E-03 
1105	 4.53002728296717E-03 
1106	 4.73446613977776E-03 
1107	 4.79516585848144E-03 
1108	 4.88483915769752E-03 
1109	 4.77882423725753E-03 
1110	 4.72878143199553E-03 
1111	 4.77883636435861E-03 
1112	 4.83441363114475E-03 
1113	 4.7328109561644E-03 
1114	 4.67403421529015E-03 
1115	 5.02657971704307E-03 
1116	 4.79966766157175E-03 
1117	 3.17798953717858E-03 
1118	 3.00457841373482E-03 
1119	 0.004464813513779 
1120	 4.44489513309653E-03 
1121	 4.3961565100241E-03 
1122	 5.35707798821046E-03 
1123	 3.43364340568209E-03 
1124	 6.76496368497695E-04 
1125	 2.60998042363482E-03 
1126	 5.11974143212575E-03 
1127	 6.58411907297078E-03 
1128	 6.6373392608539E-03 
1129	 6.34265040896056E-03 
1130	 4.24833699706206E-03 
1131	 3.86615807038676E-03 
1132	 3.89075740718737E-03 
1133	 4.04682790441927E-03 
1134	 4.26503482430385E-03 
1135	 4.40704001873256E-03 
1136	 4.95354053214148E-03 
1137	 5.2375388886111E-03 
1138	 5.74689145500713E-03 
1139	 5.3060369605566E-03 
1140	 4.1546653707199E-03 
1141	 4.54363899858622E-03 
1142	 5.3534822395297E-03 
1143	 5.3683097239661E-03 
1144	 5.43552208852738E-03 
1145	 5.40031423383545E-03 
1146	 4.91792848453139E-03 
1147	 4.31499024475167E-03 
1148	 4.55175393081053E-03 
1149	 4.61258032875167E-03 
1150	 5.16154652919741E-03 
1151	 6.76663359229541E-03 
1152	 6.55537997953913E-03 
1153	 5.38571942580946E-03 
1154	 5.25791423883352E-03 
1155	 4.98048869474467E-03 
1156	 4.32123011823312E-03 
1157	 4.11095777078191E-03 
1158	 4.70499628438434E-03 
1159	 4.8287034284077E-03 
1160	 4.55518176933339E-03 
1161	 4.9281198208128E-03 
1162	 4.93835609667456E-03 
1163	 4.45899701370223E-03 
1164	 4.60600444408454E-03 
1165	 4.69789929458426E-03 
1166	 4.69208446174818E-03 
1167	 5.04089970953686E-03 
1168	 4.92109455693109E-03 
1169	 4.62152181938519E-03 
1170	 4.58846443105197E-03 
1171	 4.54271583106339E-03 
1172	 4.39739734368055E-03 
1173	 4.35849157298531E-03 
1174	 4.4309252609196E-03 
1175	 4.56354173864444E-03 
1176	 4.48311432958253E-03 
1177	 4.58778841107653E-03 
1178	 4.59028767437049E-03 
1179	 4.20536594712948E-03 
1180	 4.23724583132322E-03 
1181	 4.52359948852103E-03 
1182	 4.49057213209022E-03 
1183	 4.63351189137364E-03 
1184	 4.83803556355275E-03 
1185	 0.004646477175437 
1186	 4.60692041065252E-03 
1187	 4.78909091632769E-03 
1188	 4.80543245842078E-03 
1189	 4.58629233513654E-03 
1190	 4.43603366490147E-03 
1191	 4.53069787140928E-03 
1192	 4.48394410736169E-03 
1193	 4.36198596116292E-03 
1194	 4.31510067833339E-03 
1195	 4.40102725169223E-03 
1196	 4.38079317407145E-03 
1197	 4.41706412438264E-03 
1198	 4.43543955575171E-03 
1199	 4.49814628484171E-03 
1200	 4.48774660146528E-03 
1201	 4.35430039627422E-03 
1202	 4.43620809588473E-03 
1203	 4.39585564867801E-03 
1204	 4.37809751838458E-03 
1205	 4.64019649720127E-03 
1206	 4.60473804377764E-03 
1207	 4.39283377529845E-03 
1208	 4.36748382717952E-03 
1209	 4.31258201571623E-03 
1210	 4.25514082928081E-03 
1211	 4.47312954703052E-03 
1212	 4.67385722212927E-03 
1213	 4.49201183382252E-03 
1214	 4.3515677742553E-03 
1215	 4.16096610062204E-03 
1216	 4.23659170340894E-03 
1217	 4.3016837412884E-03 
1218	 4.13972041695665E-03 
1219	 4.14896917538905E-03 
1220	 4.25712199123153E-03 
1221	 4.1230283408685E-03 
1222	 4.11362656165403E-03 
1223	 4.16692810615886E-03 
1224	 4.02288341811515E-03 
1225	 3.94212420691861E-03 
1226	 4.04914962185851E-03 
1227	 4.12737830780151E-03 
1228	 4.23066659358908E-03 
1229	 4.32513185243825E-03 
1230	 4.22707805190974E-03 
1231	 4.23908954742278E-03 
1232	 4.28450792438018E-03 
1233	 4.25785819877122E-03 
1234	 4.31196487433845E-03 
1235	 4.30474145384187E-03 
1236	 4.32037945564182E-03 
1237	 4.37276122040264E-03 
1238	 4.42011530602197E-03 
1239	 4.34113562666595E-03 
1240	 4.32798253320772E-03 
1241	 4.28427859989753E-03 
1242	 4.14321366330567E-03 
1243	 4.14091346403314E-03 
1244	 4.15897495052225E-03 
1245	 4.14249601156034E-03 
1246	 4.27606431979016E-03 
1247	 4.19862043806549E-03 
1248	 4.05895356298534E-03 
1249	 4.22535292972529E-03 
1250	 4.22248864074068E-03 
1251	 4.19110432881633E-03 
1252	 4.33825918281686E-03 
1253	 4.20196402157456E-03 
1254	 3.95998266744471E-03 
1255	 3.9649201703752E-03 
1256	 3.94167664675662E-03 
1257	 3.91798972197161E-03 
1258	 3.95085829975959E-03 
1259	 4.10906850737053E-03 
1260	 4.12507735835139E-03 
1261	 4.12695639718086E-03 
1262	 4.19412324425644E-03 
1263	 4.29930790769768E-03 
1264	 4.1514766007745E-03 
1265	 4.15104023020667E-03 
1266	 4.25608556530384E-03 
1267	 4.18065034317905E-03 
1268	 4.16266868807117E-03 
1269	 4.31654867217905E-03 
1270	 4.44706063606551E-03 
1271	 4.40507705294417E-03 
1272	 4.20670906645436E-03 
1273	 4.08692044307659E-03 
1274	 3.95982061588877E-03 
1275	 3.92540395220094E-03 
1276	 4.11671736218478E-03 
1277	 4.14403366987622E-03 
1278	 4.12219301452782E-03 
1279	 4.23302797423336E-03 
1280	 4.26882173670042E-03 
1281	 4.27953580420435E-03 
1282	 4.33140392930147E-03 
1283	 4.26684489134468E-03 
1284	 3.95215791334856E-03 
1285	 3.9750186862032E-03 
1286	 4.31648259897299E-03 
1287	 4.2869842881738E-03 
1288	 4.11261601988842E-03 
1289	 4.0918431339703E-03 
1290	 3.99194107760614E-03 
1291	 3.75419229082707E-03 
1292	 3.70888734187882E-03 
1293	 3.94729776617509E-03 
1294	 4.12198293718457E-03 
1295	 4.21059181591193E-03 
1296	 4.12832708786018E-03 
1297	 3.97353282935433E-03 
1298	 4.06651665829908E-03 
1299	 4.12266677665931E-03 
1300	 4.04158125772787E-03 
1301	 4.1524538239865E-03 
1302	 4.17483051383866E-03 
1303	 3.90381550716687E-03 
1304	 3.93970355437418E-03 
1305	 4.24361932916869E-03 
1306	 4.23919096608276E-03 
1307	 3.76319688189093E-03 
1308	 0.003744125553956 
1309	 4.04440880047001E-03 
1310	 4.14127316621253E-03 
1311	 4.15860349560524E-03 
1312	 4.3122578254596E-03 
1313	 4.71180748400426E-03 
1314	 4.52720176769494E-03 
1315	 3.98156616973731E-03 
1316	 4.06691963887914E-03 
1317	 3.99938675703414E-03 
1318	 3.75604772619377E-03 
1319	 3.92065018908002E-03 
1320	 4.17314530910631E-03 
1321	 4.34531961352203E-03 
1322	 4.19570510477024E-03 
1323	 4.03007298331626E-03 
1324	 3.99917045995016E-03 
1325	 3.7130552714726E-03 
1326	 3.61127094867634E-03 
1327	 3.86382168175253E-03 
1328	 3.83538647356922E-03 
1329	 3.99486322564514E-03 
1330	 4.08611378672871E-03 
1331	 4.00298604041662E-03 
1332	 4.14601512706095E-03 
1333	 3.4859873991944E-03 
1334	 2.91215710048258E-03 
1335	 3.04342521925867E-03 
1336	 4.41013346592925E-03 
1337	 0.004758820302644 
1338	 5.14377272271569E-03 
1339	 4.92938966872298E-03 
1340	 3.51362071892635E-03 
1341	 3.47148110968929E-03 
1342	 3.93614698032448E-03 
1343	 4.06991654505919E-03 
1344	 5.54774724444174E-03 
1345	 6.02879346890455E-03 
1346	 4.57169338651714E-03 
1347	 4.26984517044442E-03 
1348	 5.27663189074376E-03 
1349	 4.94955090555267E-03 
1350	 2.50829316697593E-03 
1351	 2.08403483573669E-03 
1352	 3.30092390454285E-03 
1353	 1.92375448441664E-03 
1354	 3.41635282073338E-03 
1355	 7.27779770700388E-03 
1356	-7.28064313655979E-03 
1357	-2.25127076960793E-02 
1358	-1.04815118481568E-02 
1359	 2.06666061794958E-02 
1360	 6.84937400060113E-02 
1361	 7.12352025244596E-02 
1362	 6.23383990865109E-02 
1363	 0.111757867245749 
1364	 0.111582183983879 
1365	 0.119168708497693 
1366	 0.165661629967205 
1367	 0.142883574252562 
1368	 8.94221130344236E-02 
1369	-2.74102127889984E-02 
1370	 1.74124017900783E-02 
1371	 0.149899738863358 
1372	 0.136251942669623 
1373	 0.156012290931016 
1374	 0.179815580240873 
1375	-4.21334951138598E-02 
1376	-0.087473096942667 
1377	 0.174875408238946 
1378	 0.201767765254417 
1379	 0.10582030110688 
1380	 2.25991035745092E-02 
1381	-0.22318815558849 
1382	-0.265520832366902 
1383	-0.153613431991555 
1384	-7.38113617646266E-02 
1385	 0.257429219682634 
1386	 0.346186678248893 
1387	 0.239450720642951 
1388	 0.233571677001947 
1389	 0.012283803257591 
1390	-0.106980909322459 
1391	 0.11710579587403 
1392	-2.44899726913276E-02 
1393	-0.220041466112249 
1394	-0.138885132317693 
1395	 0.041071724872548 
1396	-2.41276114969021E-02 
1397	-0.24155771642626 
1398	-0.124323876522616 
1399	 0.150941509960724 
1400	 3.51813112608274E-02 
1401	-2.23723119472477E-02 
1402	-1.76786001403329E-02 
1403	-5.86885498226928E-02 
1404	-0.149674290361304 
1405	-0.182944731799038 
1406	-0.174279034822648 
1407	-0.129198062652469 
1408	-9.64171860119006E-02 
1409	-6.13679568354038E-02 
1410	 1.50094152743631E-02 
1411	-4.93143831926078E-03 
1412	-8.96451722682105E-02 
1413	-7.23364486371156E-02 
1414	-2.66924185847622E-02 
1415	-2.93759851033479E-02 
1416	-3.48207645704342E-02 
1417	-1.01735381513976E-02 
1418	 7.95215212535225E-03 
1419	 4.24879486377873E-03 
1420	 1.49181431158415E-02 
1421	 1.91347653166213E-02 
1422	 9.24510184022877E-03 
1423	 6.93107640660064E-04 
1424	-9.16694983002626E-03 
1425	-5.99772602394136E-03 
1426	-3.40396261222267E-03 
1427	-1.30449954767278E-03 
1428	 1.73039807511083E-02 
1429	 1.98992091224464E-02 
1430	 6.7176760883058E-03 
1431	 2.54040624813422E-03 
1432	-2.74947125663075E-03 
1433	-4.16639390507685E-03 
1434	-2.11901449027384E-03 
1435	 1.2631465420575E-03 
1436	 7.3349640901792E-03 
1437	 1.60178243049188E-02 
1438	 1.20498841316877E-02 
1439	 8.11662688174306E-03 
1440	 4.99478908241259E-03 
1441	-1.33234261138851E-03 
1442	-3.54739248387388E-03 
1443	-9.06672594323584E-04 
1444	 4.00820695176915E-03 
1445	 5.42616602686722E-03 
1446	 3.23505914687555E-03 
1447	 4.51027512018937E-03 
1448	 5.29430570322831E-03 
1449	 1.49968935681806E-03 
1450	 7.29952245425475E-04 
1451	 2.06878706743645E-03 
1452	 1.83870237475135E-03 
1453	 3.0945189593815E-03 
1454	 2.71353140943461E-03 
1455	 1.76819251576753E-03 
1456	 2.15510854878437E-03 
1457	 2.24846948963757E-03 
1458	 3.02513049212247E-03 
1459	 5.92997022097948E-03 
1460	 5.80785187885469E-03 
1461	 3.66333287881888E-03 
1462	 3.6041286030733E-03 
1463	 3.36299741811461E-03 
1464	 3.19009512683215E-03 
1465	 4.61088240512314E-03 
1466	 4.70891544080822E-03 
1467	 2.43433261649874E-03 
1468	 2.74043948361203E-03 
1469	 6.09911676131014E-03 
1470	 5.81194768775778E-03 
1471	 3.76058495088505E-03 
1472	 3.84677963499581E-03 
1473	 2.77604418290599E-03 
1474	 2.33676034899032E-03 
1475	 3.61092852516521E-03 
1476	 4.75741882087177E-03 
1477	 6.21031308123558E-03 
1478	 5.84090878673385E-03 
1479	 5.15359753109542E-03 
1480	 4.96192979109017E-03 
1481	 2.80301646619813E-03 
1482	 2.57660639135808E-03 
1483	 0.004869442751527 
1484	 4.97281166598541E-03 
1485	 3.92691822453117E-03 
1486	 4.00634073862807E-03 
1487	 4.28426125414433E-03 
1488	 3.90684332665886E-03 
1489	 3.49652539951143E-03 
1490	 3.5729515360671E-03 
1491	 3.39876647366298E-03 
1492	 3.21690667251184E-03 
1493	 3.68497892287237E-03 
1494	 3.73994417067498E-03 
1495	 3.01753017257864E-03 
1496	 2.96951049294101E-03 
1497	 3.4836320032614E-03 
1498	 3.51628270350224E-03 
1499	 3.47364652291979E-03 
1500	 3.56684093959364E-03 
1501	 3.48653880672647E-03 
1502	 3.42762815528003E-03 
1503	 3.5874774967766E-03 
1504	 3.63076542478422E-03 
1505	 3.6108358203999E-03 
1506	 3.41867001786199E-03 
1507	 0.003440758087936 
1508	 3.3554729893481E-03 
1509	 3.50188629592893E-03 
1510	 3.83303977625579E-03 
1511	 3.56750624567471E-03 
1512	 3.41443388190841E-03 
1513	 3.70161034122266E-03 
1514	 3.53692788083792E-03 
1515	 3.38494603418415E-03 
1516	 3.71025923807885E-03 
1517	 3.84535848547691E-03 
1518	 3.55063335776279E-03 
1519	 3.37870961489654E-03 
1520	 3.53459014228548E-03 
1521	 3.35045645727808E-03 
1522	 3.11042880149746E-03 
1523	 3.37117104183383E-03 
1524	 3.61216914723494E-03 
1525	 3.66760441885548E-03 
1526	 3.73571962374761E-03 
1527	 3.72474734000224E-03 
1528	 3.55726953248433E-03 
1529	 3.36946747155392E-03 
1530	 3.40104697820243E-03 
1531	 3.58080610371356E-03 
1532	 3.53671705385002E-03 
1533	 3.42170526496928E-03 
1534	 3.54003425315524E-03 
1535	 3.52151815697193E-03 
1536	 3.4043563770936E-03 
1537	 3.51275937744862E-03 
1538	 3.53709484468615E-03 
1539	 3.50239683941368E-03 
1540	 3.46360405398564E-03 
1541	 3.29913917119161E-03 
1542	 3.16642641912648E-03 
1543	 3.19114074735318E-03 
1544	 0.003428504137341 
1545	 3.55499012911466E-03 
1546	 3.52963936072881E-03 
1547	 3.54434060324132E-03 
1548	 3.43122948078707E-03 
1549	 3.41691082813588E-03 
1550	 3.54643773091979E-03 
1551	 3.46907678570834E-03 
1552	 3.39762259426739E-03 
1553	 3.35110628892224E-03 
1554	 3.35317298724161E-03 
1555	 3.60181702320665E-03 
1556	 3.58890904658163E-03 
1557	 3.41470075269841E-03 
1558	 3.46049182354382E-03 
1559	 3.50630989992003E-03 
1560	 3.55283556873679E-03 
1561	 3.47527845063339E-03 
1562	 3.35073634364506E-03 
1563	 3.42833980246042E-03 
1564	 3.49246194860414E-03 
1565	 3.63030980913371E-03 
1566	 3.80022069133107E-03 
1567	 3.50604856368177E-03 
1568	 3.16123628720342E-03 
1569	 3.44410309663301E-03 
1570	 3.77875709101039E-03 
1571	 3.59428697614979E-03 
1572	 3.40959215789045E-03 
1573	 3.37086671950799E-03 
1574	 3.20925146106322E-03 
1575	 3.29175359885483E-03 
1576	 3.6922366711061E-03 
1577	 3.70735251506898E-03 
1578	 3.45418739343973E-03 
1579	 3.6178050928694E-03 
1580	 3.79005836081937E-03 
1581	 3.64297190021328E-03 
1582	 3.48464254910189E-03 
1583	 3.44868188473837E-03 
1584	 3.45140801147954E-03 
1585	 3.51064345158864E-03 
1586	 3.67139760609983E-03 
1587	 3.65191508699015E-03 
1588	 3.45477139112607E-03 
1589	 3.42538207463374E-03 
1590	 3.54312541106523E-03 
1591	 3.48251342390215E-03 
1592	 3.4365510330531E-03 
1593	 3.42222425257233E-03 
1594	 3.24745322747629E-03 
1595	 3.28376364678048E-03 
1596	 3.41690560196134E-03 
1597	 3.41085340996191E-03 
1598	 3.43689397834853E-03 
1599	 3.42498434814186E-03 
1600	 3.42043317589682E-03 
1601	 3.48102283537884E-03 
1602	 3.44243978337053E-03 
1603	 3.50501990629483E-03 
1604	 3.5799665442551E-03 
1605	 3.41785428727192E-03 
1606	 3.3558483379039E-03 
1607	 3.41081062117301E-03 
1608	 3.37782938505494E-03 
1609	 3.56247099995865E-03 
1610	 3.88301041854559E-03 
1611	 3.83655472402585E-03 
1612	 3.60984798688353E-03 
1613	 3.49252394868755E-03 
1614	 3.43967069345462E-03 
1615	 3.47927450409753E-03 
1616	 3.45800357661609E-03 
1617	 3.24418610058425E-03 
1618	 3.19776897700358E-03 
1619	 3.39309656965256E-03 
1620	 3.4695278228764E-03 
1621	 3.63622741113681E-03 
1622	 3.76926082869154E-03 
1623	 3.36059044936742E-03 
1624	 3.06900923973025E-03 
1625	 3.22679890977803E-03 
1626	 3.35182903852867E-03 
1627	 3.4103201970629E-03 
1628	 3.56234056830789E-03 
1629	 3.7913689343391E-03 
1630	 3.66943467331839E-03 
1631	 3.39259782787995E-03 
1632	 3.40506316189415E-03 
1633	 3.22795179004948E-03 
1634	 2.92105255898921E-03 
1635	 2.97827469017344E-03 
1636	 3.12902979771906E-03 
1637	 3.21914088899754E-03 
1638	 3.2971007297337E-03 
1639	 3.2682827433831E-03 
1640	 3.32574123437665E-03 
1641	 3.34934598233591E-03 
1642	 3.31908037497114E-03 
1643	 3.61037578299934E-03 
1644	 3.69526782049298E-03 
1645	 3.41464358424671E-03 
1646	 3.29459011407169E-03 
1647	 3.05321339973466E-03 
1648	 3.09030715666154E-03 
1649	 3.63256200139995E-03 
1650	 3.62245675551427E-03 
1651	 3.40381489128049E-03 
1652	 3.49894497024734E-03 
1653	 3.31844682691981E-03 
1654	 3.31966697390786E-03 
1655	 3.64187345088738E-03 
1656	 3.62123498567525E-03 
1657	 3.26166188335841E-03 
1658	 3.33901455062612E-03 
1659	 3.65466527147977E-03 
1660	 3.66225165123344E-03 
1661	 3.79716930874802E-03 
1662	 3.7839006986179E-03 
1663	 3.33502828448858E-03 
1664	 3.33556205363969E-03 
1665	 3.62722230038321E-03 
1666	 3.60662574103373E-03 
1667	 3.63992896587528E-03 
1668	 3.57907301469864E-03 
1669	 3.42124566013173E-03 
1670	 3.53323655833186E-03 
1671	 3.6360503805972E-03 
1672	 3.47430344732844E-03 
1673	 3.4690868161693E-03 
1674	 3.64797767708951E-03 
1675	 3.52252075843149E-03 
1676	 3.26717577156354E-03 
1677	 3.39618999374161E-03 
1678	 3.62650452894509E-03 
1679	 3.56209626862822E-03 
1680	 3.61928792259937E-03 
1681	 3.70737516139581E-03 
1682	 3.60978449197955E-03 
1683	 3.76177665746297E-03 
1684	 4.09257360353673E-03 
1685	 3.99153666304057E-03 
1686	 3.53792253861401E-03 
1687	 3.41912414694197E-03 
1688	 3.51071156519228E-03 
1689	 3.55113385002964E-03 
1690	 3.59402577684334E-03 
1691	 3.55997983042374E-03 
1692	 3.66672985700628E-03 
1693	 3.85612131774408E-03 
1694	 3.79920278501425E-03 
1695	 3.54386855901416E-03 
1696	 3.24125807186054E-03 
1697	 3.08157122664118E-03 
1698	 3.40384349722477E-03 
1699	 3.89886823674883E-03 
1700	 3.81792186024508E-03 
1701	 3.4024118213331E-03 
1702	 3.24224260129966E-03 
1703	 3.59218070369739E-03 
1704	 3.87047096614039E-03 
1705	 3.62154032830652E-03 
1706	 3.77726228374274E-03 
1707	 3.79471974372252E-03 
1708	 3.23849093850407E-03 
1709	 3.38320341255699E-03 
1710	 3.53018364027689E-03 
1711	 2.97539583979741E-03 
1712	 3.04526547754457E-03 
1713	 3.40558539178826E-03 
1714	 3.38307731187559E-03 
1715	 3.3532501224139E-03 
1716	 3.34933507888755E-03 
1717	 3.30150032096326E-03 
1718	 3.47676285166803E-03 
1719	 3.40471024630836E-03 
1720	 3.3083190262183E-03 
1721	 3.64521780201926E-03 
1722	 3.8138328202474E-03 
1723	 3.60149038290354E-03 
1724	 3.68688399558182E-03 
1725	 3.54249160709061E-03 
1726	 3.19171765075581E-03 
1727	 3.40494468478732E-03 
1728	 3.24737326927027E-03 
1729	 2.86882237326671E-03 
1730	 2.96268734559417E-03 
1731	 3.12766430241036E-03 
1732	 3.31180453810391E-03 
1733	 3.52049117192048E-03 
1734	 3.52649003505769E-03 
1735	 3.31968557799496E-03 
1736	 3.14861446003068E-03 
1737	 2.9924659926289E-03 
1738	 3.1265332604051E-03 
1739	 3.3546260867403E-03 
1740	 3.23411161332323E-03 
1741	 3.31854754372697E-03 
1742	 3.36036600931021E-03 
1743	 3.02168465182233E-03 
1744	 3.20809782265411E-03 
1745	 3.39772926617298E-03 
1746	 3.00011306489615E-03 
1747	 3.05658077773264E-03 
1748	 2.9647196297984E-03 
1749	 2.9799471884309E-03 
1750	 3.45896209158868E-03 
1751	 3.60349589768408E-03 
1752	 3.58200564559207E-03 
1753	 3.75937201031251E-03 
1754	 4.08647159763679E-03 
1755	 4.01956395437169E-03 
1756	 3.66289964274586E-03 
1757	 3.63884912907668E-03 
1758	 3.43309777068798E-03 
1759	 2.75394938377398E-03 
1760	 2.70200881896044E-03 
1761	 3.0927603057501E-03 
1762	 3.35775759204259E-03 
1763	 3.87541904453954E-03 
1764	 4.16664489470486E-03 
1765	 3.17209656293591E-03 
1766	 2.30668136144482E-03 
1767	 3.01755138200478E-03 
1768	 3.13779230798836E-03 
1769	 3.27710287166833E-03 
1770	 4.07146693435408E-03 
1771	 3.52549125911942E-03 
1772	 3.26276342489503E-03 
1773	 3.19925887285134E-03 
1774	 2.33177857574638E-03 
1775	 3.48189068297055E-03 
1776	 3.49139170199969E-03 
1777	 3.92983339851938E-03 
1778	 4.0156908987571E-03 
1779	 1.47452762983848E-03 
1780	 1.1637040623605E-03 
1781	 3.0423211660874E-03 
1782	 3.57311972058264E-03 
1783	 5.15595113441866E-03 
1784	 5.35952245390845E-03 
1785	 3.43323562905643E-03 
1786	 2.84064595395184E-03 
1787	 1.67900570302015E-03 
1788	 1.47090404089263E-03 
1789	 2.59174163500803E-03 
1790	 3.6053276455359E-03 
1791	 6.75473921192846E-03 
1792	 7.74055587305878E-03 
1793	 7.56772723233755E-03 
1794	 6.74062183077818E-03 
1795	 1.78052699882265E-03 
1796	 2.52647823661979E-03 
1797	 1.61095338980287E-03 
1798	-8.56882794155789E-03 
1799	-7.30730035745414E-03 
1800	-1.33927816316202E-04 
1801	 1.71710517792146E-03 
1802	 1.95104075133108E-02 
1803	 2.34169384776727E-02 
1804	-1.01170853763735E-02 
1805	-2.13560189589215E-02 
1806	-2.47909944798106E-02 
1807	-2.55114113035889E-02 
1808	 1.68388114109793E-02 
1809	 3.63387259790842E-02 
1810	 3.78525897468044E-02 
1811	 0.036094243227562 
1812	-3.51147190808136E-03 
1813	-1.76810127027238E-02 
1814	-3.25078994768285E-02 
1815	-5.75724472151498E-02 
1816	-3.07991287349171E-02 
1817	-0.126331998773511 
1818	-0.198785961430924 
1819	-0.137922237579737 
1820	-0.219489160301306 
1821	-0.350504279443918 
1822	-0.262961632425543 
1823	-1.69109842650857E-02 
1824	 8.83845459967643E-02 
1825	 0.35938952553654 
1826	 0.329338116749939 
1827	 9.42271129348442E-03 
1828	-0.191920484331127 
1829	-0.696099355016236 
1830	-0.889295708264488 
1831	-2.04409068702284 
1832	-1.46647037376365 
1833	 0.614593847287355 
1834	 0.600585466092023 
1835	 0.18669317854221 
1836	 0.256712964639706 
1837	-0.508302715029065 
1838	-0.931410874644499 
1839	-0.211914179284186 
1840	 0.213985704932863 
1841	 0.436510444676581 
1842	 0.732476601951671 
1843	 1.15436330491971 
1844	-11.4167905584979 
1845	-5.88200656902907 
1846	 1.37464255918395 
1847	 0.48724093282829 
1848	 0.267190536487071 
1849	 0.703984131608298 
1850	 6.06266631293739 
1851	 0.241317164270665 
1852	-0.888740678310117 
1853	-0.467364024650201 
1854	-0.204885822539673 
1855	 0.696834011952785 
1856	 1.32833079696719 
1857	 7.68092186800469 
1858	-10.2534301730893 
1859	-0.504041846845366 
1860	 0.292943708720216 
1861	 1.48812368749602 
1862	 2.74041572050842 
1863	 4.43248752394019 
1864	 3.34213357064171 
1865	 6.64665343128164 
1866	 0.480490188471517 
1867	 0.588104649862124 
1868	 0.220423160612173 
1869	 0.300166674227361 
1870	 0.135679198079787 
1871	-0.085747957540963 
1872	 0.799179758967046 
1873	-8.76289449714896 
1874	 3.49010039681446 
1875	 0.403482239586418 
1876	-0.161256696964942 
1877	-0.436541325527335 
1878	-0.610382120500777 
1879	-1.71446222997946 
1880	-3.15346700771533 
1881	-2.60742922102836 
1882	-2.52021420450592 
1883	 2.84124558415097 
1884	-9.93668724953393 
1885	-1.1729932834847 
1886	 1.41881614651936 
1887	-0.471962612707056 
1888	-0.205089611916922 
1889	-3.30032143120837E-02 
1890	 0.379316710125762 
1891	 0.383217077919059 
1892	 0.398467593771889 
1893	 0.870898502871396 
1894	 0.530884535097985 
1895	 0.275991111954671 
1896	 0.467945828329101 
1897	 0.633542362113951 
1898	 0.789459618328126 
1899	 1.64220902402991 
1900	 2.11424310963258 
1901	 0.778988311888978 
1902	-0.105842761918722 
1903	 0.714018434484837 
1904	-0.592013362228027 
1905	-10.2232524159108 
1906	-110.616884697694 
1907	 23.255691676656 
1908	 31.9945058428688 
1909	 4.01434548964732 
1910	 1.04191417947745 
1911	 1.38326662542378 
1912	-1.45608901577445 
1913	-1.21038957742509 
1914	-0.364109165766306 
1915	-0.362634061128474 
1916	-0.155965218001522 
1917	 3.80948474126289E-02 
1918	-0.275004421989213 
1919	-1.80741644987544 
1920	 6.06918240962603 
1921	 1.14251767741063 
1922	 1.24881746970812 
1923	-5.62321843501484 
1924	 0.764361364726265 
1925	-1.82126250126059 
1926	-2.12229780216938 
1927	-1.76189982602758 
1928	-0.576175576176847 
1929	 5.50513357837353E-02 
1930	 0.385859797764922 
1931	 0.261183666049213 
1932	-2.42190670618072E-02 
1933	-1.41908831283759E-02 
1934	 4.26803343532746E-02 
1935	-3.25045403702183E-02 
1936	-0.056455257534214 
1937	-2.11374170760508E-03 
1938	 0.045197814120488 
1939	 4.60163656442526E-02 
1940	 6.92189787949535E-02 
1941	 5.52948805492282E-02 
1942	 2.05129993944195E-02 
1943	 1.55850796789025E-02 
1944	-1.31903636882515E-02 
1945	-1.44836680908502E-02 
1946	 2.14633546447549E-02 
1947	 1.68900818424439E-02 
1948	 4.65880928621541E-03 
1949	-4.02101462489673E-03 
1950	-0.015346574834896 
1951	-1.55508955333342E-02 
1952	-1.53743447769747E-02 
1953	-4.39827319420058E-03 
1954	 1.27659367138561E-02 
1955	 5.03341536193678E-03 
1956	-5.17994539734601E-03 
1957	-2.61930360940299E-03 
1958	-5.56270781059725E-03 
1959	 4.2286706033252E-03 
1960	 1.20400885264994E-02 
1961	 6.4187387531021E-03 
1962	 4.38090161528382E-03 
1963	 2.82649041976427E-03 
1964	 3.65312039269267E-04 
1965	 1.77155203106818E-03 
1966	 2.19348262027085E-03 
1967	 3.77242675004985E-03 
1968	 4.86728834693282E-03 
1969	 4.5717653001681E-03 
1970	 2.76827538050251E-03 
1971	 3.21220928253397E-03 
1972	 3.44126815501643E-03 
1973	 3.17690709333082E-03 
1974	 4.04747113623181E-03 
1975	 3.96026399063034E-03 
1976	 3.7095156433356E-03 
1977	 3.95766625179591E-03 
1978	 3.68826292863198E-03 
1979	 3.41816267923184E-03 
1980	 3.15621132847281E-03 
1981	 2.85270549312028E-03 
1982	 1.92058193941444E-03 
1983	 1.3490630374558E-03 
1984	 1.21350136666057E-03 
1985	 8.40890456920243E-04 
1986	 1.02932233822988E-03 
1987	 2.0171959117392E-03 
1988	 3.13272317638807E-03 
1989	 3.45578092203255E-03 
1990	 3.02609378924094E-03 
1991	 3.17294735868883E-03 
1992	 3.00345934222025E-03 
1993	 2.87212160481056E-03 
1994	 2.95429230298141E-03 
1995	 4.30841423642175E-03 
1996	 3.64702582608113E-03 
1997	 1.78607622285845E-03 
1998	 1.28385657971111E-03 
1999	 7.84253227766139E-04 
2000	 6.68776147319222E-04 
2001	 2.2914388397263E-03 
2002	 3.73028360760866E-03 
2003	 5.65646803845103E-03 
2004	 7.70021187363728E-03 
2005	 7.88058786503832E-03 
2006	 7.35540114775116E-03 
2007	 4.82171514305578E-03 
2008	 1.80248183022689E-03 
2009	 2.01767835756303E-03 
2010	 7.47108835125054E-03 
2011	 8.06076392822869E-03 
2012	 8.37122532441813E-03 
2013	 7.35081363401945E-03 
2014	 3.74973074033293E-03 
2015	-6.2909440995116E-04 
2016	-1.71420563626517E-03 
2017	-9.67229552942102E-04 
2018	 1.93205049976644E-03 
2019	 3.10320895241584E-03 
2020	 3.88851847667066E-03 
2021	 5.04276012554165E-03 
2022	 3.35412555094982E-03 
2023	 2.12190835285005E-03 
2024	 2.19087009321496E-03 
2025	 2.76378190272136E-03 
2026	 2.85011554771464E-03 
2027	 3.40075782626524E-03 
2028	 4.30246494707632E-03 
2029	 4.23826238737527E-03 
2030	 3.58403788669329E-03 
2031	 3.8565148836728E-03 
2032	 3.70899404311641E-03 
2033	 2.84276248402099E-03 
2034	 3.06604260523957E-03 
2035	 3.2561794740081E-03 
2036	 2.78713657394545E-03 
2037	 3.07537900590425E-03 
2038	 3.34211224657039E-03 
2039	 3.24614236038102E-03 
2040	 2.99748624393101E-03 
2041	 2.85043926302274E-03 
2042	 2.11404893300001E-03 
2043	 1.86119550826082E-03 
2044	 1.63521938475621E-03 
2045	 2.15669311909608E-03 
2046	 2.9550624371424E-03 
2047	 3.89065237624751E-03 
2048	 4.77417134906087E-03 
2049	 4.6789144808851E-03 
2050	 3.71794544462701E-03 
2051	 2.52633677343282E-03 
2052	 1.40971257967093E-03 
2053	 9.10234963955147E-04 
2054	 1.42955588656713E-03 
2055	 2.51366235585773E-03 
2056	 3.0579469696631E-03 
2057	 3.88633593736665E-03 
2058	 4.17827505981576E-03 
2059	 3.8302587992265E-03 
2060	 3.44696754461719E-03 
2061	 2.91192915745538E-03 
2062	 2.33555614281815E-03 
2063	 1.37626889216476E-03 
2064	 8.84673029162574E-04 
2065	 1.50855396358322E-03 
2066	 1.8809718582221E-03 
2067	 2.09314228471581E-03 
2068	 2.97110406537162E-03 
2069	 2.88961547147687E-03 
2070	 2.64934148266661E-03 
2071	 3.49096507207852E-03 
2072	 3.84259931739006E-03 
2073	 3.8189079303545E-03 
2074	 3.40153428300987E-03 
2075	 3.67658907497252E-03 
2076	 4.1588970401077E-03 
2077	 4.1210023642439E-03 
2078	 4.20095560543257E-03 
2079	 4.37201883773523E-03 
2080	 4.31592554493994E-03 
2081	 3.71784620203714E-03 
2082	 3.64547426949576E-03 
2083	 4.19669276618572E-03 
2084	 4.02762445432441E-03 
2085	 4.05996745698007E-03 
2086	 3.98792747308622E-03 
2087	 3.22357993465792E-03 
2088	 0.002853707489864 
2089	 2.6296060815773E-03 
2090	 2.53804910648898E-03 
2091	 2.75622628732381E-03 
2092	 2.60270422537996E-03 
2093	 1.75198119531757E-03 
2094	 1.81189262874674E-03 
2095	 2.26693115828291E-03 
2096	 2.52571320223745E-03 
2097	 3.5124276007341E-03 
2098	 3.78080951851696E-03 
2099	 3.34958912100955E-03 
2100	 3.37261289754105E-03 
2101	 3.65662213913724E-03 
2102	 3.70385954790293E-03 
2103	 3.55581415207739E-03 
2104	 3.0270122093543E-03 
2105	 2.05167735885289E-03 
2106	 1.54717873884591E-03 
2107	 2.38113154514119E-03 
2108	 3.00177494320213E-03 
2109	 2.9650082049059E-03 
2110	 3.04040177826151E-03 
2111	 2.66525944048558E-03 
2112	 2.39543816745045E-03 
2113	 2.06699504640221E-03 
2114	 1.7997760147357E-03 
2115	 1.90456765635252E-03 
2116	 2.07029755006784E-03 
2117	 2.19086615768677E-03 
2118	 3.0297642668411E-03 
2119	 3.56076649913401E-03 
2120	 3.72879082308475E-03 
2121	 3.80565865771322E-03 
2122	 3.91736134493323E-03 
2123	 3.89521496018159E-03 
2124	 3.88314887694331E-03 
2125	 3.51608764281962E-03 
2126	 3.52777866483941E-03 
2127	 3.70776985221654E-03 
2128	 3.7772020214964E-03 
2129	 3.45700457628134E-03 
2130	 3.05698365448252E-03 
2131	 3.14482520007792E-03 
2132	 3.19518038187468E-03 
2133	 3.49128332261787E-03 
2134	 3.61046520410881E-03 
2135	 3.84810603845543E-03 
2136	 3.74271100987097E-03 
2137	 3.29739186806543E-03 
2138	 3.01379908965459E-03 
2139	 0.00267231991623 
2140	 2.48910887458698E-03 
2141	 2.52333067811028E-03 
2142	 2.31961838135326E-03 
2143	 2.03301663924705E-03 
2144	 1.54362524844674E-03 
2145	 1.61637992219384E-03 
2146	 1.92153381331429E-03 
2147	 2.25192753258899E-03 
2148	 2.44037612046745E-03 
2149	 2.58437599141618E-03 
2150	 2.37654556743053E-03 
2151	 1.36752138788816E-03 
2152	 1.24871746029073E-03 
2153	 2.09424926694319E-03 
2154	 2.22057475973768E-03 
2155	 2.17264593266741E-03 
2156	 2.56169347612243E-03 
2157	 2.76413022348299E-03 
2158	 1.9681357717019E-03 
2159	 1.71315365501902E-03 
2160	 2.14759170401115E-03 
2161	 2.38451391326025E-03 
2162	 2.18832719694048E-03 
2163	 2.39820986942921E-03 
2164	 3.7433791916798E-03 
2165	 3.49192811823082E-03 
2166	 1.45794832266391E-03 
2167	 1.20735359602659E-03 
2168	 8.93630340499369E-04 
2169	 1.3633342502473E-03 
2170	 3.66675234226708E-03 
2171	 5.54608257199337E-03 
2172	 4.88249733730376E-03 
2173	 4.10013252654602E-03 
2174	 3.76455824804817E-03 
2175	 3.37654495431727E-03 
2176	 4.26960133060977E-03 
2177	 5.51131848141931E-03 
2178	 5.67787461100643E-03 
2179	 4.50238991210632E-03 
2180	 3.64832757897654E-03 
2181	 3.52512334302446E-03 
2182	 2.47549140393281E-03 
2183	 1.44192807141997E-03 
2184	 7.94271461254344E-04 
2185	-2.05741638451919E-04 
2186	-3.68734857625924E-04 
2187	 7.3217627448097E-04 
2188	 1.37939417312792E-03 
2189	 2.61083932958121E-03 
2190	 2.5473825079802E-03 
2191	 1.23402239913115E-03 
2192	 7.64312898740597E-04 
2193	-1.08553897594261E-04 
2194	-2.10379952920079E-04 
2195	 1.22654268979419E-03 
2196	 1.64735482183354E-03 
2197	 1.02481832875737E-03 
2198	 1.09827378358897E-03 
2199	 1.24738079145088E-03 
2200	 1.44698412298717E-03 
2201	 2.53183789501259E-03 
2202	 3.69088844718005E-03 
2203	 4.16637588381051E-03 
2204	 5.47372663857319E-03 
2205	 5.8347595068693E-03 
2206	 5.39169228586994E-03 
2207	 5.05619581811479E-03 
2208	 4.11880885512152E-03 
2209	 3.75319125664478E-03 
2210	 4.38039559575425E-03 
2211	 3.90783579081066E-03 
2212	 3.23801977514483E-03 
2213	 4.29186245761328E-03 
2214	 4.88156067409408E-03 
2215	 5.90080991109571E-03 
2216	 7.46134202719948E-03 
2217	 7.20546496828166E-03 
2218	 4.17816660664794E-03 
2219	 3.34734943789415E-03 
2220	 3.26857448038781E-03 
2221	 2.78513396145295E-03 
2222	 2.20370643342415E-03 
2223	 2.9146967540579E-03 
2224	 4.61994980098725E-03 
2225	 4.67317294896701E-03 
2226	 5.15342500633184E-03 
2227	 4.80090900123827E-03 
2228	 1.88175471545911E-03 
2229	 8.75612047540823E-04 
2230	 1.31460281294734E-03 
2231	 2.00502541254225E-03 
2232	 3.28003106554995E-03 
2233	 3.88799763242156E-03 
2234	 5.03086619563847E-03 
2235	 4.80358049322242E-03 
2236	 3.49728301606784E-03 
2237	 3.55806177006709E-03 
2238	 2.25815410022652E-03 
2239	 7.13046856118065E-05 
2240	-3.65352329296575E-04 
2241	 1.19365819812026E-03 
2242	 3.48958202461912E-03 
2243	 4.65988658433388E-03 
2244	 4.78595224684826E-03 
2245	 2.75404007520523E-03 
2246	 8.9944866631345E-04 
2247	 1.94361482919024E-03 
2248	 2.12628702798031E-03 
2249	 1.51721700889849E-03 
2250	 9.78209209331688E-04 
2251	 1.15014353014078E-03 
2252	 3.20960109999904E-03 
2253	 3.79598893236303E-03 
2254	 2.91445697397433E-03 
2255	 5.13304360514648E-04 
2256	-1.45265017132384E-03 
2257	 1.35990365840049E-03 
2258	 4.58389336276071E-03 
2259	 6.37999112823208E-03 
2260	 7.02605429544782E-03 
2261	 5.25842360177751E-03 
2262	 4.03513030174873E-03 
2263	 1.65192259518191E-03 
2264	 1.31579637801416E-03 
2265	 1.72018486239738E-03 
2266	 1.25787483767474E-03 
2267	 1.78176313018618E-03 
2268	 1.96366007969065E-03 
2269	 1.0023391186072E-03 
2270	 1.48288282269719E-03 
2271	 4.23461238307816E-03 
2272	 4.69896543242731E-03 
2273	 2.95232180995789E-03 
2274	 0.002421028248747 
2275	 1.87625165099951E-03 
2276	 1.61007480880212E-03 
2277	 3.0977072284471E-03 
2278	 3.7441915165946E-03 
2279	 2.67991977921767E-03 
2280	 2.05966520011059E-03 
2281	 1.14919494852189E-03 
2282	 1.48644613535198E-03 
2283	 1.26259573488389E-03 
2284	 1.90024961710174E-03 
2285	 2.14570959876214E-03 
2286	 3.44127231800348E-03 
2287	 5.66478540926537E-03 
2288	 4.96504895842824E-03 
2289	 3.0763633486753E-03 
2290	 8.73033266233884E-04 
2291	-9.01381833709666E-05 
2292	-1.01809662554687E-04 
2293	-2.94677719031675E-03 
2294	-4.83155997703271E-03 
2295	-5.17409285588546E-03 
2296	-5.67027015014588E-03 
2297	-3.10585263877677E-03 
2298	-3.74614872306779E-05 
2299	 1.85116530373663E-03 
2300	 2.58960597165253E-03 
2301	 3.25453709145309E-03 
2302	 5.28627778621415E-03 
2303	 5.74682132312995E-03 
2304	 4.74208272280797E-03 
2305	 5.02280914811849E-03 
2306	 6.48068487229386E-03 
2307	 6.27208602889327E-03 
2308	 7.73484042053724E-03 
2309	 8.94658558827854E-03 
2310	 7.09042252662995E-03 
2311	 4.88705168202368E-03 
2312	-3.62270838021708E-04 
2313	-3.78366575100458E-03 
2314	-3.86747608755469E-03 
2315	-6.8799202598771E-03 
2316	-8.53695681986221E-03 
2317	-6.06504571535115E-03 
2318	-6.71092890578224E-03 
2319	-8.22295650149878E-03 
2320	-4.33071783845388E-03 
2321	-4.88419801340483E-03 
2322	-9.0034594500754E-03 
2323	-6.34753411106472E-03 
2324	-6.66478971542283E-03 
2325	-8.05802974484589E-03 
2326	-5.63689098210696E-03 
2327	-4.68475380360731E-03 
2328	-2.67705840079211E-03 
2329	-5.53901776881699E-04 
2330	 2.83716292623735E-03 
2331	 5.74233746702881E-03 
2332	 8.80518246498502E-03 
2333	 1.73125149609533E-02 
2334	 2.11452974000626E-02 
2335	 1.59117449529378E-02 
2336	 1.34153915313773E-02 
2337	 8.84800777176615E-03 
2338	 1.20228403762597E-03 
2339	 2.60480070550802E-03 
2340	 3.77337514626253E-03 
2341	 1.8094753627093E-03 
2342	-5.16860959233631E-04 
2343	-2.79822275150826E-03 
2344	-2.98863910146746E-03 
2345	-1.05516450681341E-02 
2346	-1.46664628530619E-02 
2347	-4.53768310955041E-03 
2348	 3.29396760379893E-03 
2349	 1.13307948981009E-02 
2350	 2.20381968341705E-02 
2351	 2.05101684083665E-02 
2352	 1.44803369854904E-02 
2353	 1.68833110419824E-02 
2354	 1.95071883900221E-02 
2355	 1.46716955747249E-02 
2356	 1.12853988909631E-02 
2357	 3.83840676666127E-03 
2358	 1.49347456713541E-03 
2359	 0.011058858528714 
2360	 1.56200483549351E-02 
2361	 1.99273612168104E-02 
2362	 1.37616793289749E-02 
2363	-2.30425724233804E-03 
2364	-1.21600543041608E-02 
2365	-1.10546595679213E-02 
2366	-3.71751214480319E-03 
2367	-2.85548282666542E-03 
2368	-4.86494314846992E-03 
2369	-9.94796590926105E-03 
2370	-1.16003927121172E-02 
2371	-6.50137587312982E-03 
2372	-3.48073673792138E-03 
2373	-6.10937954756245E-03 
2374	-1.26024865815093E-02 
2375	-7.17291474722641E-03 
2376	 3.82175511982891E-03 
2377	 1.67214410336643E-02 
2378	 1.60928668754557E-02 
2379	-1.16397321114526E-02 
2380	-2.32319738966894E-02 
2381	-4.10644435387777E-02 
2382	-6.66078574764627E-02 
2383	-4.34213850495777E-02 
2384	-0.027807554536451 
2385	-1.96774453808011E-02 
2386	-5.74498590246021E-03 
2387	-2.14204935095113E-02 
2388	-3.43933401146702E-02 
2389	-3.97040902345889E-02 
2390	-0.044135367298749 
2391	-4.08086293570196E-02 
2392	-4.06696164124706E-02 
2393	-4.44802436177698E-02 
2394	-3.69014545768583E-02 
2395	-2.28813194262986E-02 
2396	-0.019865074989124 
2397	-1.17346044887493E-02 
2398	 1.49162653383174E-02 
2399	 2.47182565991893E-02 
2400	 1.98932608407054E-02 
2401	 0.015014249655034 
2402	 6.10945739088748E-03 
2403	 6.24480856998065E-03 
2404	-1.96736578318692E-03 
2405	-1.14351691279054E-02 
2406	-0.027292840330406 
2407	-5.85273852745449E-02 
2408	-0.061053287973842 
2409	-0.011486304227981 
2410	 2.39046543138987E-02 
2411	 3.28673612325919E-02 
2412	 3.61934761347628E-03 
2413	-7.66185380246376E-02 
2414	-0.109879707771619 
2415	-9.67233972747701E-02 
2416	-3.95128178401302E-02 
2417	 4.89428089054632E-03 
2418	 0.015742341919924 
2419	 1.48727350875345E-02 
2420	 2.07732960810288E-02 
2421	 2.82186672118334E-02 
2422	-1.06426663343556E-02 
2423	-2.83413755234177E-02 
2424	-5.19310353183139E-02 
2425	-0.072360908548941 
2426	-3.10947498939335E-02 
2427	-6.03079655929737E-02 
2428	-0.107832286284458 
2429	-5.54631361967202E-02 
2430	-1.32684374312633E-02 
2431	-2.48811718538455E-02 
2432	-2.56551618149746E-02 
2433	 1.98358165100706E-02 
2434	 4.06360551617298E-02 
2435	 7.31342047059267E-02 
2436	 0.092505465807554 
2437	-2.37679830825601E-03 
2438	-5.83534506304683E-02 
2439	-5.58326805793136E-02 
2440	 1.35302674111345E-02 
2441	 0.138478478087887 
2442	 0.116426086418996 
2443	-5.34162511852937E-03 
2444	-2.09975688697313E-02 
2445	-8.02514887929213E-02 
2446	-0.417571332419774 
2447	-0.447788552218245 
2448	-0.465426832963449 
2449	-0.411232662808647 
2450	-0.399861459031586 
2451	-0.316949820727208 
2452	-0.304796331547878 
2453	-0.146900582550627 
2454	-0.187009863861052 
2455	-0.24463446463645 
2456	-0.213146534440123 
2457	-0.434521851601783 
2458	-0.387644704784384 
2459	-0.234709982264192 
2460	-0.31155684878523 
2461	-0.515431012901389 
2462	-0.677236759597293 
2463	-0.838165851744331 
2464	-0.848002569555726 
2465	-0.517469609710666 
2466	-0.403572057567343 
2467	-0.39654030172549 
2468	-0.560055917135716 
2469	-0.43773925830239 
2470	-0.297270884062741 
2471	-0.793302918981489 
2472	-0.648380057643371 
2473	-0.681873296497683 
2474	-1.01965835202023 
2475	-0.855541441532347 
2476	-0.323089341410574 
2477	-0.187726942029614 
2478	-0.256415928600736 
2479	-0.167095327174929 
2480	-0.163528553630043 
2481	-1.09668044515268 
2482	-2.0169264135569 
2483	-0.9882291313661 
2484	 93.359549102523 
2485	-2.6813070064602 
2486	-2.44862061319675E-02 
2487	-1.05926609096517 
2488	-1.95307172851449 
2489	 4.0865989817545 
2490	 1.37432392653801 
2491	 2.1681083266678 
2492	 0.759225868669183 
2493	 0.551807366666523 
2494	 1.38890681327449 
2495	 56.0159292351389 
2496	 13.0780215220924 
2497	-7.17339712836731 
2498	-0.161874434519832 
2499	 0.453059966936965 
2500	 0.202333664416702 
