Wavelength	rt0718far00009.asd
350	 2.78852273214499E-02 
351	 2.78067352448858E-02 
352	 0.028062002213905 
353	 2.84242688454458E-02 
354	 2.86799322434666E-02 
355	 2.85847031623143E-02 
356	 2.85657296612948E-02 
357	 2.86171938766386E-02 
358	 2.86458620465506E-02 
359	 2.88502379560889E-02 
360	 2.88717968084253E-02 
361	 2.87741845447507E-02 
362	 2.88768205450696E-02 
363	 2.88825782007489E-02 
364	 0.028980666517783 
365	 2.91765320483489E-02 
366	 2.91132271177195E-02 
367	 2.93016993302339E-02 
368	 0.029548538316088 
369	 0.029602221579762 
370	 2.97243338383176E-02 
371	 2.95769441135009E-02 
372	 2.93014520937563E-02 
373	 2.92970553547008E-02 
374	 2.95164199812946E-02 
375	 2.95732681655157E-02 
376	 2.96317674819715E-02 
377	 3.06049413200087E-02 
378	 3.03177119307606E-02 
379	 2.97891628360319E-02 
380	 3.01983202558281E-02 
381	 3.07817860690883E-02 
382	 3.08654866012694E-02 
383	 3.06838670891476E-02 
384	 3.08866158725959E-02 
385	 3.13807800087435E-02 
386	 3.17475361520978E-02 
387	 3.17814841895113E-02 
388	 0.031574488930408 
389	 0.031846241572686 
390	 3.20155018565902E-02 
391	 3.17605304227211E-02 
392	 3.20209534273873E-02 
393	 3.21470077993302E-02 
394	 3.23730531287061E-02 
395	 3.29922928492048E-02 
396	 3.28346729168224E-02 
397	 3.29374182690583E-02 
398	 3.33698156327111E-02 
399	 3.33222431689289E-02 
400	 3.32917899240851E-02 
401	 3.33486013045878E-02 
402	 0.033473003833391 
403	 3.36125998624824E-02 
404	 3.37748814934116E-02 
405	 3.38622589982625E-02 
406	 3.38226603354452E-02 
407	 3.40751206647454E-02 
408	 3.42416575131197E-02 
409	 3.42358651478419E-02 
410	 3.43045472984352E-02 
411	 3.46775620650863E-02 
412	 3.49857514670887E-02 
413	 3.49931047910563E-02 
414	 3.49995400262397E-02 
415	 3.51996936925034E-02 
416	 3.54899740448795E-02 
417	 3.56662976614069E-02 
418	 3.57993268207813E-02 
419	 3.59989848176097E-02 
420	 3.63052231027055E-02 
421	 0.036673852882657 
422	 3.67377451256729E-02 
423	 3.68394605659677E-02 
424	 3.72019581171324E-02 
425	 3.72700357846773E-02 
426	 3.75293915889984E-02 
427	 3.78618697348325E-02 
428	 3.79508027717584E-02 
429	 3.83058718428485E-02 
430	 3.86915101090361E-02 
431	 3.90012415470471E-02 
432	 3.93622394100851E-02 
433	 3.95634081135747E-02 
434	 3.98112903935073E-02 
435	 4.02285894631064E-02 
436	 4.04140044419033E-02 
437	 4.06253975658471E-02 
438	 0.0409769465566 
439	 0.041456580666441 
440	 4.17428435762465E-02 
441	 4.20108905014729E-02 
442	 0.042354671001853 
443	 4.26694558777825E-02 
444	 4.28845850830248E-02 
445	 4.31360476461121E-02 
446	 4.35281528277457E-02 
447	 4.38099353539403E-02 
448	 4.41183387572701E-02 
449	 0.044437474986618 
450	 4.46487471213183E-02 
451	 4.48709750489319E-02 
452	 0.045119815935142 
453	 4.53646035428757E-02 
454	 4.55042096636143E-02 
455	 4.57102747233499E-02 
456	 4.59222413866369E-02 
457	 4.60371746707974E-02 
458	 4.62086534524494E-02 
459	 4.63901715931912E-02 
460	 4.65825683736492E-02 
461	 4.68358564236337E-02 
462	 4.70161471964151E-02 
463	 4.71342688201952E-02 
464	 4.72354563098285E-02 
465	 4.73588167294195E-02 
466	 4.75584610651035E-02 
467	 4.77830708887752E-02 
468	 4.79399198807483E-02 
469	 4.80752092280933E-02 
470	 4.82255102547497E-02 
471	 4.84146626921612E-02 
472	 4.86492100683844E-02 
473	 4.89036756957614E-02 
474	 4.90882257053075E-02 
475	 4.91905986417838E-02 
476	 4.95272947848577E-02 
477	 4.97889436882164E-02 
478	 4.99706958781303E-02 
479	 5.02584834449377E-02 
480	 5.04052760126177E-02 
481	 5.06189070301684E-02 
482	 5.09765131751979E-02 
483	 0.051159136521765 
484	 5.14930894131836E-02 
485	 5.18800206635534E-02 
486	 5.21283831624286E-02 
487	 5.24546747132218E-02 
488	 0.052707068162504 
489	 5.29315747659488E-02 
490	 5.33601414230548E-02 
491	 5.35910709085043E-02 
492	 5.38376082571284E-02 
493	 5.42847971851849E-02 
494	 0.054734194903435 
495	 5.50546583632495E-02 
496	 5.53241496259641E-02 
497	 5.57186301590974E-02 
498	 5.61745759417149E-02 
499	 5.66132888427583E-02 
500	 5.70127873994064E-02 
501	 0.057442607789574 
502	 5.78161212763204E-02 
503	 0.058200637598736 
504	 0.058664557033394 
505	 5.91041969414008E-02 
506	 5.94848673253726E-02 
507	 5.98736517974355E-02 
508	 6.03887074770271E-02 
509	 6.06433385800488E-02 
510	 0.060937833427288 
511	 0.06146761638985 
512	 6.19370826593711E-02 
513	 6.23846612766373E-02 
514	 6.28502917904395E-02 
515	 6.33781574673507E-02 
516	 0.063974818391481 
517	 6.45786079281584E-02 
518	 6.51283613125931E-02 
519	 6.55787504432832E-02 
520	 6.60771368741438E-02 
521	 6.66259916879835E-02 
522	 0.067201697802164 
523	 6.78254983108576E-02 
524	 6.83747124835937E-02 
525	 6.88988392820225E-02 
526	 6.95537694515985E-02 
527	 7.01789564951565E-02 
528	 7.07252660689608E-02 
529	 7.12161027141216E-02 
530	 7.17772660628283E-02 
531	 7.23815534036408E-02 
532	 7.30084101424399E-02 
533	 7.36266455164965E-02 
534	 7.41747230651856E-02 
535	 7.47616750583681E-02 
536	 7.54061615026734E-02 
537	 0.076011384040968 
538	 7.66207706470912E-02 
539	 7.72476652377747E-02 
540	 7.78971244756514E-02 
541	 7.85847893605852E-02 
542	 7.91593324892052E-02 
543	 7.96894269317472E-02 
544	 8.03527084965689E-02 
545	 8.08736975580167E-02 
546	 8.14372056686976E-02 
547	 8.21190521239367E-02 
548	 8.26729507304159E-02 
549	 8.32762650070792E-02 
550	 8.38889152134357E-02 
551	 0.084435712287297 
552	 8.50869978455502E-02 
553	 8.56679718275992E-02 
554	 8.61892872045258E-02 
555	 8.68820630868903E-02 
556	 0.087529157789303 
557	 8.80900889202505E-02 
558	 8.86075113410774E-02 
559	 8.92758470641854E-02 
560	 8.98606664292364E-02 
561	 9.03391735040666E-02 
562	 9.08263929212277E-02 
563	 9.13261787948631E-02 
564	 9.18280305016614E-02 
565	 9.22959460334654E-02 
566	 9.26509033705258E-02 
567	 9.29830139068569E-02 
568	 9.33703088680159E-02 
569	 9.38316126056862E-02 
570	 9.41070663241513E-02 
571	 9.43251290529279E-02 
572	 9.45714260095808E-02 
573	 9.48527311238642E-02 
574	 9.49939365283512E-02 
575	 9.50543149370141E-02 
576	 9.51156436251286E-02 
577	 0.095135692015941 
578	 9.51549887758806E-02 
579	 9.51395100016081E-02 
580	 9.50147814858073E-02 
581	 9.47856518794838E-02 
582	 9.45651480791115E-02 
583	 9.43838254478682E-02 
584	 9.41004202144633E-02 
585	 9.38084279341257E-02 
586	 9.34661177005377E-02 
587	 9.30155346059387E-02 
588	 9.26123745142888E-02 
589	 9.22234105030269E-02 
590	 9.17641500550582E-02 
591	 9.11021960855881E-02 
592	 9.05874958901248E-02 
593	 8.99744776582927E-02 
594	 8.90706378439466E-02 
595	 0.088200640180609 
596	 8.71294998292731E-02 
597	 8.58900103326863E-02 
598	 8.46678850115557E-02 
599	 8.34245808423897E-02 
600	 0.082314474154553 
601	 8.14547840749665E-02 
602	 8.08639260863818E-02 
603	 8.04337438407919E-02 
604	 8.01270946252844E-02 
605	 7.99228421788729E-02 
606	 7.97200993624164E-02 
607	 7.96335329763217E-02 
608	 7.96576483316433E-02 
609	 7.96535781393511E-02 
610	 0.07961744401742 
611	 7.95329321861984E-02 
612	 7.94239789792456E-02 
613	 0.079435881790428 
614	 7.93698463218932E-02 
615	 7.92315394325594E-02 
616	 7.91447289125362E-02 
617	 7.91255636346488E-02 
618	 7.91260477628795E-02 
619	 7.90694668657403E-02 
620	 7.88313211683293E-02 
621	 7.88001736851696E-02 
622	 7.88472705953358E-02 
623	 7.87373431047966E-02 
624	 7.86344411415803E-02 
625	 7.85255992069164E-02 
626	 7.84054368519872E-02 
627	 7.82807471988038E-02 
628	 7.81448723499737E-02 
629	 7.80768274060789E-02 
630	 7.80932161063051E-02 
631	 7.80225111541295E-02 
632	 7.79019900491173E-02 
633	 7.77197214855156E-02 
634	 0.077481908021719 
635	 7.74704875850069E-02 
636	 7.74802147830806E-02 
637	 7.73775191771894E-02 
638	 7.71974039502539E-02 
639	 7.70331122686335E-02 
640	 7.68916073346711E-02 
641	 7.67582184026181E-02 
642	 7.66659051112633E-02 
643	 7.64746687131687E-02 
644	 7.62090104432788E-02 
645	 7.60263938392762E-02 
646	 7.58756815375799E-02 
647	 7.56991065719684E-02 
648	 7.54572586594671E-02 
649	 7.51475882663736E-02 
650	 7.48866191773788E-02 
651	 7.45765186023578E-02 
652	 7.40815029086419E-02 
653	 0.073568422264027 
654	 7.29689383631048E-02 
655	 7.22233288717001E-02 
656	 7.14159390760245E-02 
657	 7.07233208116888E-02 
658	 7.01128980994207E-02 
659	 6.95393394663495E-02 
660	 6.91621792220596E-02 
661	 6.87268061919437E-02 
662	 6.82581978080946E-02 
663	 6.79523007052537E-02 
664	 6.77009028935854E-02 
665	 0.067503750420201 
666	 6.73407757670775E-02 
667	 6.71399633947474E-02 
668	 6.69454805058029E-02 
669	 0.066750274789585 
670	 6.65556459240969E-02 
671	 6.64860887149261E-02 
672	 6.63572975458371E-02 
673	 6.61917063561189E-02 
674	 6.62021232329254E-02 
675	 6.61816275825619E-02 
676	 6.60948312203125E-02 
677	 6.59776964999866E-02 
678	 6.59627825361997E-02 
679	 6.59186170662562E-02 
680	 6.58544697689784E-02 
681	 6.58390121778582E-02 
682	 6.58845176516687E-02 
683	 6.58470753773142E-02 
684	 0.065724939600576 
685	 6.57165456666876E-02 
686	 0.065606851641826 
687	 6.54129680772072E-02 
688	 6.51947813772641E-02 
689	 6.47909833001055E-02 
690	 6.44138120315401E-02 
691	 0.064028836216769 
692	 6.34634142145104E-02 
693	 0.062878000348541 
694	 6.22152205104658E-02 
695	 0.061475978542545 
696	 6.07225711625217E-02 
697	 5.98907850546146E-02 
698	 5.90037981755974E-02 
699	 0.058132547515547 
700	 5.71820116506493E-02 
701	 5.61034229798519E-02 
702	 0.054967765361584 
703	 5.38942835469724E-02 
704	 5.27472951281866E-02 
705	 5.15416890377053E-02 
706	 0.050311082644714 
707	 4.90089053507054E-02 
708	 4.75814738457367E-02 
709	 4.61009274902148E-02 
710	 4.46438397690509E-02 
711	 4.30233942403629E-02 
712	 4.13977005463562E-02 
713	 0.039801572043797 
714	 3.80875917175663E-02 
715	 3.65694721266113E-02 
716	 3.49738415950304E-02 
717	 3.31363609713203E-02 
718	 3.14661738724811E-02 
719	 2.98415734735863E-02 
720	 2.83947530949305E-02 
721	 2.70352117387869E-02 
722	 2.57322793585765E-02 
723	 2.44530207193082E-02 
724	 2.32538268515581E-02 
725	 2.18911440109117E-02 
726	 2.05966251704503E-02 
727	 1.93630879240821E-02 
728	 1.81342835801276E-02 
729	 1.67721794577843E-02 
730	 0.015525984905592 
731	 1.45470235635369E-02 
732	 0.013818406595116 
733	 0.013122924017272 
734	 1.25286844922896E-02 
735	 1.20804465520533E-02 
736	 1.17490926874927E-02 
737	 1.16104821323063E-02 
738	 1.14455345262766E-02 
739	 1.11233904441387E-02 
740	 1.09659949729546E-02 
741	 1.09498432994599E-02 
742	 1.09682443940782E-02 
743	 1.08881889920038E-02 
744	 1.07774191007849E-02 
745	 1.07232194570341E-02 
746	 0.010736618088563 
747	 1.07244554320829E-02 
748	 1.06887908298012E-02 
749	 1.06687643601505E-02 
750	 1.06815681647877E-02 
751	 1.06369060132658E-02 
752	 1.05594692670423E-02 
753	 1.05115148980097E-02 
754	 1.05541917370615E-02 
755	 1.05767337007801E-02 
756	 1.05302276475879E-02 
757	 1.04627112215205E-02 
758	 1.05842640569484E-02 
759	 1.07109795464096E-02 
760	 1.07949421140267E-02 
761	 1.08138118088152E-02 
762	 1.07065003900795E-02 
763	 1.05841944569292E-02 
764	 1.05571213268486E-02 
765	 1.06357692900354E-02 
766	 1.05431226006612E-02 
767	 1.04987797176702E-02 
768	 0.010536384669834 
769	 0.010515571421651 
770	 1.05369566793527E-02 
771	 1.05887524272869E-02 
772	 1.06358597683317E-02 
773	 1.06313450274854E-02 
774	 0.010727924861306 
775	 0.010846216382465 
776	 1.08510888223665E-02 
777	 1.09580412341903E-02 
778	 1.09546576346047E-02 
779	 1.08944399836217E-02 
780	 1.10964669500214E-02 
781	 1.11691507017688E-02 
782	 1.12224222984355E-02 
783	 1.13560504086051E-02 
784	 1.14358153742079E-02 
785	 1.15262068465647E-02 
786	 1.16557082549777E-02 
787	 1.18236652419108E-02 
788	 1.19526547220367E-02 
789	 1.20603282737699E-02 
790	 1.21701047747319E-02 
791	 1.23064894823119E-02 
792	 1.24815354798082E-02 
793	 1.26472085219538E-02 
794	 1.27718827476146E-02 
795	 1.28587337242174E-02 
796	 1.30327022629476E-02 
797	 1.31893260347185E-02 
798	 1.32442867124587E-02 
799	 1.34024084088542E-02 
800	 1.35009414854524E-02 
801	 0.013602714268718 
802	 1.38442872622019E-02 
803	 1.39151465316215E-02 
804	 1.38954442633296E-02 
805	 1.38483245106785E-02 
806	 1.37787636545507E-02 
807	 1.38430503083136E-02 
808	 1.39278464415137E-02 
809	 1.39270133145875E-02 
810	 0.013908803135369 
811	 1.37428593669237E-02 
812	 1.35795682724678E-02 
813	 1.36182080547787E-02 
814	 1.35512938169419E-02 
815	 0.01332814766203 
816	 1.30381294338453E-02 
817	 0.012856640238978 
818	 1.28057854473626E-02 
819	 1.25734646890812E-02 
820	 1.20997216594565E-02 
821	 1.16705740032613E-02 
822	 1.14010329423511E-02 
823	 1.10242442627695E-02 
824	 1.04498236786861E-02 
825	 1.01915175408786E-02 
826	 9.96203044233819E-03 
827	 9.56901762275664E-03 
828	 8.97174172226357E-03 
829	 8.64517228408216E-03 
830	 8.47568273430383E-03 
831	 8.31839971137298E-03 
832	 8.06644492714172E-03 
833	 7.88261459089296E-03 
834	 7.7329948418832E-03 
835	 7.62561596655446E-03 
836	 7.65194331041237E-03 
837	 7.52980051029663E-03 
838	 7.4426231132114E-03 
839	 7.51744511729622E-03 
840	 7.47156297623353E-03 
841	 7.36676597492257E-03 
842	 7.34937601230633E-03 
843	 7.47363939348788E-03 
844	 7.18267979540155E-03 
845	 7.10287568248828E-03 
846	 7.28473437383766E-03 
847	 7.34071009262442E-03 
848	 7.0964017322279E-03 
849	 6.99882867965666E-03 
850	 7.09394400874164E-03 
851	 6.86069123093823E-03 
852	 6.96637996774792E-03 
853	 6.99265079571617E-03 
854	 6.75513305004283E-03 
855	 7.05124705516862E-03 
856	 6.96204696543384E-03 
857	 6.69443122588025E-03 
858	 6.65822574694516E-03 
859	 6.80048553652419E-03 
860	 6.92769825780615E-03 
861	 6.93311490075233E-03 
862	 6.82905658956155E-03 
863	 7.00059448961753E-03 
864	 6.83600215932458E-03 
865	 6.45236396231194E-03 
866	 6.59244762097307E-03 
867	 6.57282415007008E-03 
868	 6.5450202925102E-03 
869	 6.60397630285565E-03 
870	 6.62622543555135E-03 
871	 6.48087248115741E-03 
872	 6.49417010347894E-03 
873	 6.72169644181736E-03 
874	 6.38143602134792E-03 
875	 6.42065322513022E-03 
876	 6.56632753400754E-03 
877	 6.40767930658055E-03 
878	 6.49325278184758E-03 
879	 6.68063822495815E-03 
880	 6.63968246847503E-03 
881	 6.15402348114624E-03 
882	 6.02271401186095E-03 
883	 6.22654959682246E-03 
884	 6.32634458603779E-03 
885	 5.81873648293073E-03 
886	 6.07964704580542E-03 
887	 6.32840463861927E-03 
888	 6.19959331430668E-03 
889	 6.08527634374567E-03 
890	 6.22193064924316E-03 
891	 6.29412107480251E-03 
892	 6.11689569479063E-03 
893	 5.9506668657927E-03 
894	 5.97739878879706E-03 
895	 5.95482610296313E-03 
896	 5.76838725402496E-03 
897	 6.1410077885474E-03 
898	 6.00204450100217E-03 
899	 5.76186336489129E-03 
900	 6.03362811537209E-03 
901	 6.16206025600022E-03 
902	 6.46959353883319E-03 
903	 6.38265001411139E-03 
904	 5.46662097107752E-03 
905	 5.63429643610913E-03 
906	 5.74780177443038E-03 
907	 5.69110691499889E-03 
908	 5.99906998043903E-03 
909	 5.77703422889085E-03 
910	 5.63820001040134E-03 
911	 5.86493205901889E-03 
912	 6.25795535204711E-03 
913	 6.50154635613712E-03 
914	 6.25684793914763E-03 
915	 5.70944126612639E-03 
916	 5.53426050890052E-03 
917	 5.26046947402253E-03 
918	 5.14658264632921E-03 
919	 5.26165714709088E-03 
920	 5.3146342205517E-03 
921	 5.70092027493472E-03 
922	 5.74873924228992E-03 
923	 5.31491229124994E-03 
924	 5.75687885682097E-03 
925	 5.75932002583419E-03 
926	 5.78015133109354E-03 
927	 6.11102104905716E-03 
928	 4.29282636117957E-03 
929	 4.9962041346308E-03 
930	 6.80936440449438E-03 
931	 5.69054911507861E-03 
932	 6.95762474027649E-03 
933	 5.28614422430263E-03 
934	 3.42862333759991E-03 
935	 5.3955158442577E-03 
936	 1.80557405656481E-03 
937	 3.25218616219303E-03 
938	 6.73833570244163E-03 
939	 6.79347565559543E-03 
940	 5.97640065004494E-03 
941	 5.15324956684845E-03 
942	 4.56656141322009E-03 
943	 4.28277642811771E-03 
944	 5.55400496525368E-03 
945	 5.69966590403001E-03 
946	 4.4065635954993E-03 
947	 3.34630376962741E-03 
948	 4.79336855944702E-03 
949	 5.16129654640485E-03 
950	 3.81289634945261E-03 
951	 2.60767195229317E-03 
952	 4.72760822067674E-03 
953	 4.00269129778024E-03 
954	 2.35816099426157E-03 
955	 5.73068332973241E-03 
956	 4.82511076349998E-03 
957	 2.36636478237684E-03 
958	 1.75640969576494E-03 
959	 4.67040391896332E-03 
960	 4.77752139992526E-03 
961	 4.00378479699588E-03 
962	 4.20910105153354E-03 
963	 5.84887036803263E-03 
964	 5.36337430738311E-03 
965	 5.02836043671258E-03 
966	 5.35938829013984E-03 
967	 5.28574507702145E-03 
968	 5.24143284503397E-03 
969	 5.00504722059768E-03 
970	 4.84868949054427E-03 
971	 5.30793845622295E-03 
972	 5.10635249822463E-03 
973	 4.74548127749085E-03 
974	 4.81478490203869E-03 
975	 5.43153787924507E-03 
976	 3.95848250352508E-03 
977	 3.33203609950425E-03 
978	 3.83415321600132E-03 
979	 3.32492326228609E-03 
980	 4.86488224391254E-03 
981	 5.56387129614079E-03 
982	 4.56331665587208E-03 
983	 3.37587862566054E-03 
984	 3.75586555406337E-03 
985	 4.81650339882822E-03 
986	 5.5398980224044E-03 
987	 5.30357862876338E-03 
988	 4.90106696946705E-03 
989	 4.38567794701581E-03 
990	 4.30395699888645E-03 
991	 5.07341400617775E-03 
992	 3.67758853037047E-03 
993	 2.88996664302612E-03 
994	 3.61021582058629E-03 
995	 4.75618356447893E-03 
996	 4.75409777826152E-03 
997	 4.32853319440226E-03 
998	 4.34277822520501E-03 
999	 5.16320618135964E-03 
1000	 4.98409818109168E-03 
1001	 3.74881072173058E-03 
1002	 4.05131901401312E-03 
1003	 4.10031451438481E-03 
1004	 3.9725480812492E-03 
1005	 3.90380806001262E-03 
1006	 3.69466672192989E-03 
1007	 3.74167604710414E-03 
1008	 3.93677262310172E-03 
1009	 4.01638976376766E-03 
1010	 4.1199169787708E-03 
1011	 4.26796264847045E-03 
1012	 4.15659746005133E-03 
1013	 4.18543225473587E-03 
1014	 4.17418832055227E-03 
1015	 4.09931858378976E-03 
1016	 4.0448001714011E-03 
1017	 4.07150759081301E-03 
1018	 3.98056042695615E-03 
1019	 3.71279759093621E-03 
1020	 3.67354372209661E-03 
1021	 3.76607072010802E-03 
1022	 3.7273563444682E-03 
1023	 3.75890773844839E-03 
1024	 4.03911374616233E-03 
1025	 4.23914696998889E-03 
1026	 4.40095246863132E-03 
1027	 4.46519092685833E-03 
1028	 4.61736208486463E-03 
1029	 4.52167692054203E-03 
1030	 4.02045566308824E-03 
1031	 3.94727082379411E-03 
1032	 3.91829867615579E-03 
1033	 3.95486337257657E-03 
1034	 4.36614279339782E-03 
1035	 4.50502409099304E-03 
1036	 4.58950873272216E-03 
1037	 4.5521360204723E-03 
1038	 4.26183135734979E-03 
1039	 4.13923673624254E-03 
1040	 3.9234987800559E-03 
1041	 3.88022008867315E-03 
1042	 3.95127518845796E-03 
1043	 4.2020355212023E-03 
1044	 4.39491406016525E-03 
1045	 4.85738767833609E-03 
1046	 4.79431307139635E-03 
1047	 4.4336101795287E-03 
1048	 4.27852736140024E-03 
1049	 0.003733078076443 
1050	 0.003658827538725 
1051	 4.13757833934566E-03 
1052	 4.23054971941558E-03 
1053	 4.30868730771195E-03 
1054	 4.30250141762838E-03 
1055	 3.97495064953334E-03 
1056	 3.86579677337825E-03 
1057	 3.83393196699619E-03 
1058	 3.89330371331242E-03 
1059	 3.95312444188106E-03 
1060	 4.11583857415732E-03 
1061	 4.21887763065781E-03 
1062	 4.36653084906059E-03 
1063	 4.39497903308272E-03 
1064	 4.41576046076866E-03 
1065	 4.34049411566043E-03 
1066	 4.04135335964048E-03 
1067	 3.93224776887439E-03 
1068	 3.7980017435064E-03 
1069	 3.79276625263069E-03 
1070	 4.02650046510727E-03 
1071	 4.12526327312354E-03 
1072	 4.39917173713562E-03 
1073	 4.33586764192805E-03 
1074	 4.28905878771269E-03 
1075	 4.09071686384607E-03 
1076	 4.04781954785823E-03 
1077	 3.94972975148519E-03 
1078	 3.95419795232289E-03 
1079	 4.08216542516466E-03 
1080	 4.11568888427396E-03 
1081	 4.24271724805225E-03 
1082	 4.20580232151732E-03 
1083	 3.87577714984778E-03 
1084	 3.89624019058269E-03 
1085	 4.14705915697741E-03 
1086	 4.12430846350495E-03 
1087	 4.23518376974102E-03 
1088	 4.24923429965422E-03 
1089	 3.96975648313553E-03 
1090	 3.55205494522737E-03 
1091	 3.55902193463345E-03 
1092	 3.85316698394638E-03 
1093	 3.98586724548788E-03 
1094	 4.44106085575266E-03 
1095	 4.45536833618382E-03 
1096	 3.97409735519843E-03 
1097	 3.94237659529331E-03 
1098	 3.95079624750272E-03 
1099	 3.90433469337603E-03 
1100	 4.35965750726921E-03 
1101	 4.45315230675223E-03 
1102	 3.80934560316133E-03 
1103	 3.73940669246417E-03 
1104	 4.25999038400747E-03 
1105	 4.05693431348586E-03 
1106	 3.61517897707151E-03 
1107	 4.33555849929602E-03 
1108	 4.39825476452371E-03 
1109	 3.6033362785075E-03 
1110	 3.55427535441005E-03 
1111	 4.13147852330879E-03 
1112	 4.19178416226825E-03 
1113	 4.15913085747703E-03 
1114	 4.24089659864339E-03 
1115	 3.68236464273857E-03 
1116	 3.61670931558806E-03 
1117	 5.03743027745703E-03 
1118	 5.52082695054147E-03 
1119	 4.95096910631466E-03 
1120	 5.18480638590974E-03 
1121	 6.06924539158878E-03 
1122	 4.15179336622535E-03 
1123	 2.91752998100421E-03 
1124	 5.45785061931884E-03 
1125	 6.72443846881795E-03 
1126	 4.96479504925988E-03 
1127	 4.73980371709794E-03 
1128	 5.34772255240711E-03 
1129	 4.33846822434853E-03 
1130	 1.6925369364175E-03 
1131	 2.07530261060072E-03 
1132	 3.32817355174622E-03 
1133	 3.20379485760855E-03 
1134	 3.50753042415506E-03 
1135	 4.02791185341463E-03 
1136	 4.10016645876041E-03 
1137	 0.004061568203514 
1138	 4.56733921498231E-03 
1139	 4.78025411857997E-03 
1140	 4.52648909299677E-03 
1141	 4.32018245259891E-03 
1142	 3.62184964032412E-03 
1143	 3.42096047164413E-03 
1144	 3.8914497199605E-03 
1145	 2.86616609151921E-03 
1146	 3.25676915711509E-03 
1147	 4.83172401304743E-03 
1148	 2.79273291989501E-03 
1149	 1.73172530430536E-03 
1150	 2.40479396967791E-03 
1151	 4.12316279351098E-03 
1152	 4.10947033525551E-03 
1153	 4.49522947053271E-03 
1154	 4.57481906557186E-03 
1155	 3.55253253423549E-03 
1156	 3.50268899778513E-03 
1157	 3.77655955565311E-03 
1158	 3.75599993288414E-03 
1159	 3.93664422696804E-03 
1160	 3.99583836717061E-03 
1161	 3.61207007323165E-03 
1162	 3.98840071561501E-03 
1163	 4.4348289623057E-03 
1164	 3.80033464966346E-03 
1165	 3.46876710223338E-03 
1166	 3.70446293201787E-03 
1167	 3.45505089676932E-03 
1168	 3.19573965114032E-03 
1169	 3.28407978047235E-03 
1170	 3.52577686190502E-03 
1171	 3.60749316040531E-03 
1172	 3.69840099628273E-03 
1173	 3.67560395762919E-03 
1174	 3.50882519918095E-03 
1175	 3.49990268599468E-03 
1176	 3.37025914719693E-03 
1177	 3.64274368919449E-03 
1178	 4.03862911745926E-03 
1179	 3.76653276930486E-03 
1180	 3.40706655412364E-03 
1181	 3.50803021187862E-03 
1182	 3.49171614142579E-03 
1183	 3.47063973613579E-03 
1184	 3.71682731354843E-03 
1185	 3.64969778374333E-03 
1186	 3.37374918339887E-03 
1187	 3.15289573306246E-03 
1188	 3.06429897195878E-03 
1189	 3.49075733726773E-03 
1190	 3.90626434333718E-03 
1191	 3.82191413271471E-03 
1192	 3.85901828312715E-03 
1193	 3.87024483218364E-03 
1194	 3.75485294773766E-03 
1195	 3.56004817794022E-03 
1196	 3.69238305718472E-03 
1197	 3.78788029739464E-03 
1198	 3.52059422126254E-03 
1199	 3.40037996315321E-03 
1200	 3.60268928454627E-03 
1201	 3.6547972085386E-03 
1202	 3.63295363269673E-03 
1203	 3.64362706418169E-03 
1204	 3.48070003504918E-03 
1205	 3.39606038885148E-03 
1206	 3.43826741540996E-03 
1207	 3.41459084414706E-03 
1208	 3.41099147111616E-03 
1209	 3.58266003766757E-03 
1210	 3.68514746827186E-03 
1211	 3.42895140971882E-03 
1212	 3.31293132664582E-03 
1213	 3.42623989266772E-03 
1214	 3.43223017427074E-03 
1215	 3.41726492886691E-03 
1216	 3.5501551079455E-03 
1217	 3.66323381274502E-03 
1218	 0.00360205957196 
1219	 3.5235987040035E-03 
1220	 3.52222218488125E-03 
1221	 3.53095206217662E-03 
1222	 3.46000999958677E-03 
1223	 3.36768950304292E-03 
1224	 3.43378344973066E-03 
1225	 3.47858164791586E-03 
1226	 3.39173792794598E-03 
1227	 3.39563239180186E-03 
1228	 3.42907533705366E-03 
1229	 3.58712208038019E-03 
1230	 3.63088998525908E-03 
1231	 3.46577299849373E-03 
1232	 3.59229835654528E-03 
1233	 3.54001508308671E-03 
1234	 3.34060581119167E-03 
1235	 3.35605253992737E-03 
1236	 3.6312278207029E-03 
1237	 3.56351709918974E-03 
1238	 3.31625663055386E-03 
1239	 3.40210575743489E-03 
1240	 3.51010851236789E-03 
1241	 3.45066474155968E-03 
1242	 3.39050811960174E-03 
1243	 3.48515417712626E-03 
1244	 3.59185058596304E-03 
1245	 3.41875978553871E-03 
1246	 3.22177328610519E-03 
1247	 3.36356156300178E-03 
1248	 3.28729496451062E-03 
1249	 3.03207727153774E-03 
1250	 3.24346960051644E-03 
1251	 3.49361820274771E-03 
1252	 3.3413624556709E-03 
1253	 3.21175391175439E-03 
1254	 3.32016980748179E-03 
1255	 3.36461917252792E-03 
1256	 3.31147748738856E-03 
1257	 3.2032408837167E-03 
1258	 3.23828797040693E-03 
1259	 3.23773378286307E-03 
1260	 3.25629226933275E-03 
1261	 3.5258721511516E-03 
1262	 3.57609955894944E-03 
1263	 3.52377760144025E-03 
1264	 3.27533350405344E-03 
1265	 3.33049041909969E-03 
1266	 3.39926759478636E-03 
1267	 3.22059088394964E-03 
1268	 3.21365931307144E-03 
1269	 3.37824138865718E-03 
1270	 3.35053006271868E-03 
1271	 3.38755669931061E-03 
1272	 3.53553598574227E-03 
1273	 3.36230452133957E-03 
1274	 3.1236002414064E-03 
1275	 3.36471013769629E-03 
1276	 3.68985897437361E-03 
1277	 3.48544044042204E-03 
1278	 3.32263785262948E-03 
1279	 3.36683823768099E-03 
1280	 3.18882072867081E-03 
1281	 3.15639519173897E-03 
1282	 3.4278303384769E-03 
1283	 3.4676297381383E-03 
1284	 0.003367905156899 
1285	 3.36528684938256E-03 
1286	 3.30720607903489E-03 
1287	 3.2581298607666E-03 
1288	 3.32907197951929E-03 
1289	 3.29277775096885E-03 
1290	 3.1610094602646E-03 
1291	 3.02071719211669E-03 
1292	 3.24809936163967E-03 
1293	 3.46712925839367E-03 
1294	 3.26856894219689E-03 
1295	 3.24109503204616E-03 
1296	 3.56544054699587E-03 
1297	 3.49223180529996E-03 
1298	 3.25147054254879E-03 
1299	 3.66070255562561E-03 
1300	 3.74383504187698E-03 
1301	 2.98604095377062E-03 
1302	 2.99958622901011E-03 
1303	 3.55316418773531E-03 
1304	 3.44667761784431E-03 
1305	 3.15087092490284E-03 
1306	 3.15658096123661E-03 
1307	 3.19827047640353E-03 
1308	 3.11407657168767E-03 
1309	 3.1373274077292E-03 
1310	 3.34902871407814E-03 
1311	 3.56569379142748E-03 
1312	 3.56812453688714E-03 
1313	 3.73369836176141E-03 
1314	 3.81667974125657E-03 
1315	 3.54442063215022E-03 
1316	 3.41123901560113E-03 
1317	 3.39464435342078E-03 
1318	 3.43992893962656E-03 
1319	 3.54942799184865E-03 
1320	 3.51017519019077E-03 
1321	 3.40756903101702E-03 
1322	 3.54127689111638E-03 
1323	 3.51175700634455E-03 
1324	 3.38680423907047E-03 
1325	 3.70991148703774E-03 
1326	 3.97818562925832E-03 
1327	 3.7489790139595E-03 
1328	 3.24717547405943E-03 
1329	 2.9682644474071E-03 
1330	 3.08192760612581E-03 
1331	 3.30865003668287E-03 
1332	 3.50330028902962E-03 
1333	 3.39323157843886E-03 
1334	 3.17092090778432E-03 
1335	 3.1183698833144E-03 
1336	 3.34220175912214E-03 
1337	 3.3918029295995E-03 
1338	 3.3722129881734E-03 
1339	 3.36770264139166E-03 
1340	 3.19219837492287E-03 
1341	 3.46331423473528E-03 
1342	 4.42674625950731E-03 
1343	 4.54508676213007E-03 
1344	 4.24319156922013E-03 
1345	 4.18951602458723E-03 
1346	 3.1141988314589E-03 
1347	 2.82061089307818E-03 
1348	 4.49534545948305E-03 
1349	 5.47496278337838E-03 
1350	 5.40444031332695E-03 
1351	 5.80617584325759E-03 
1352	 8.26587597632231E-03 
1353	 8.58392069447486E-03 
1354	 7.42194303148388E-03 
1355	-1.80380067233751E-03 
1356	-1.36921491310897E-02 
1357	-1.68635892104254E-02 
1358	-2.30547531262824E-02 
1359	-2.77887110094149E-02 
1360	-3.46362969875566E-02 
1361	-0.110387950914633 
1362	-9.11894337538193E-02 
1363	 0.08544874874159 
1364	 0.123768696277928 
1365	 6.05545737050162E-02 
1366	 4.71822182341349E-02 
1367	 4.07101952377189E-02 
1368	 2.26958097465973E-02 
1369	 0.142397551342232 
1370	 0.172113778957421 
1371	 4.52664994383453E-02 
1372	 7.33724231007585E-02 
1373	 0.274164980064885 
1374	 0.323052427018762 
1375	 0.313940836338057 
1376	 0.315330452641826 
1377	 0.267869245561035 
1378	 0.209363622171836 
1379	 0.118221407320889 
1380	 0.120569770416749 
1381	 0.106556824777685 
1382	 2.54576214729357E-02 
1383	 5.35463245697555E-02 
1384	 6.95629787173338E-02 
1385	-3.84096087111409E-02 
1386	-0.131142062542801 
1387	-0.292589381836313 
1388	-0.202976267258983 
1389	 0.367253692858653 
1390	 0.359886652666691 
1391	 5.72522230528124E-02 
1392	 7.33042540638174E-02 
1393	 2.17883718777906E-02 
1394	-0.331419926678734 
1395	-0.289001434301964 
1396	-8.73032992993506E-02 
1397	 3.76910089310351E-02 
1398	 0.330561615077077 
1399	 9.70228851448333E-02 
1400	-0.283737476013465 
1401	 8.03348676832109E-02 
1402	 3.80079886047294E-02 
1403	-0.11877965298936 
1404	 0.137981746958077 
1405	 0.164940678993937 
1406	-0.108407237082399 
1407	-0.106001340662994 
1408	 4.80848205468492E-02 
1409	 5.60568734884579E-02 
1410	 1.81062525731762E-02 
1411	 8.35179385454821E-03 
1412	 1.78999291949631E-02 
1413	 2.10403873101369E-02 
1414	 8.40778145342697E-03 
1415	 5.83486221334124E-04 
1416	-4.84418832284331E-03 
1417	 2.94688091868753E-04 
1418	 8.23870307871931E-03 
1419	 8.5024496827134E-03 
1420	 9.23411422264278E-03 
1421	 0.012106610508538 
1422	 1.77896810060069E-02 
1423	 1.57116966906818E-02 
1424	 6.80763510848612E-03 
1425	 8.83760517758776E-03 
1426	 1.73245238678057E-02 
1427	 1.39093800317124E-02 
1428	 6.01929526081142E-03 
1429	 6.95446762433061E-03 
1430	 6.10272596541662E-03 
1431	 3.96202054780818E-03 
1432	 0.010931651583941 
1433	 1.24790638596536E-02 
1434	 4.71822449437536E-03 
1435	 1.46568518465467E-04 
1436	-5.29731077337609E-03 
1437	-4.32926970682498E-03 
1438	-4.25417301890513E-03 
1439	-4.88097275978064E-03 
1440	 2.44919907867165E-03 
1441	 7.96667672215029E-03 
1442	 6.77527647042898E-03 
1443	 8.15301188675602E-03 
1444	 8.35480344323933E-03 
1445	 5.88508476969366E-03 
1446	 5.32226972896699E-03 
1447	 4.76867884375373E-03 
1448	 3.82222257310335E-03 
1449	 3.63055562670185E-03 
1450	 3.24924136252953E-03 
1451	 2.76870781153756E-03 
1452	 3.3927860213076E-03 
1453	 4.29036512915683E-03 
1454	 4.22447023846369E-03 
1455	 4.87469395300735E-03 
1456	 4.72705827997251E-03 
1457	 2.94545096875048E-03 
1458	 2.84589778801546E-03 
1459	 3.92476770517305E-03 
1460	 3.9198226885477E-03 
1461	 3.88532550493523E-03 
1462	 3.73293713417998E-03 
1463	 2.82375803098925E-03 
1464	 2.74355574592122E-03 
1465	 3.2225270267696E-03 
1466	 3.1207974833872E-03 
1467	 2.91561358499379E-03 
1468	 3.08272590929614E-03 
1469	 3.46180361081756E-03 
1470	 3.1741152921041E-03 
1471	 2.40052978174463E-03 
1472	 2.87774330579064E-03 
1473	 3.75619961577372E-03 
1474	 3.69414873062205E-03 
1475	 4.13529879376073E-03 
1476	 4.34268802096285E-03 
1477	 3.52506147956622E-03 
1478	 3.04490326252517E-03 
1479	 2.84326499480007E-03 
1480	 3.40768151742456E-03 
1481	 4.66773754771421E-03 
1482	 4.14613628161302E-03 
1483	 2.90469128295579E-03 
1484	 3.0288034513013E-03 
1485	 3.00165931772678E-03 
1486	 2.62491334325359E-03 
1487	 2.8829966452058E-03 
1488	 3.16625056927719E-03 
1489	 2.79693533245423E-03 
1490	 2.63291830948726E-03 
1491	 3.2068571697806E-03 
1492	 3.31992838111457E-03 
1493	 2.91308168899348E-03 
1494	 2.76461006905528E-03 
1495	 2.68639499770727E-03 
1496	 2.75914681967324E-03 
1497	 3.01121084743296E-03 
1498	 2.91748731212221E-03 
1499	 2.75101389951631E-03 
1500	 2.6780197751439E-03 
1501	 2.23580196944566E-03 
1502	 2.21016965782469E-03 
1503	 2.75411509679487E-03 
1504	 2.86108811028909E-03 
1505	 3.00791040922011E-03 
1506	 2.83503482095892E-03 
1507	 2.38663061412334E-03 
1508	 2.40371656450977E-03 
1509	 2.63655893259532E-03 
1510	 2.77336497124124E-03 
1511	 2.92525348480787E-03 
1512	 2.88442280709569E-03 
1513	 2.89594814647303E-03 
1514	 2.95086769243857E-03 
1515	 0.002899600196215 
1516	 2.77620655585106E-03 
1517	 2.57986895058446E-03 
1518	 2.62500144453099E-03 
1519	 2.75283485123503E-03 
1520	 2.72604552764038E-03 
1521	 2.68670044875282E-03 
1522	 2.63635368325967E-03 
1523	 2.72583478536246E-03 
1524	 2.7412865261387E-03 
1525	 2.58513540717355E-03 
1526	 2.52979616328601E-03 
1527	 2.47300209264164E-03 
1528	 2.51697844866033E-03 
1529	 2.63543657187887E-03 
1530	 2.57979314048621E-03 
1531	 2.49510725750147E-03 
1532	 2.38792102682119E-03 
1533	 2.37945685546722E-03 
1534	 2.58707701495584E-03 
1535	 2.71138306859828E-03 
1536	 2.72937646962294E-03 
1537	 2.6690195010335E-03 
1538	 2.58731868349919E-03 
1539	 2.54092751372119E-03 
1540	 2.45816831704899E-03 
1541	 2.39227872117058E-03 
1542	 2.3907329774927E-03 
1543	 2.52312486969719E-03 
1544	 2.62766468423052E-03 
1545	 2.73836312379732E-03 
1546	 2.87374551300319E-03 
1547	 2.72057545475726E-03 
1548	 2.62473123532783E-03 
1549	 2.6758026065563E-03 
1550	 2.4962267599707E-03 
1551	 2.49763775649012E-03 
1552	 2.74384611724563E-03 
1553	 2.68670050978636E-03 
1554	 2.59156429178189E-03 
1555	 2.55095978110679E-03 
1556	 2.3448260447922E-03 
1557	 2.50130306879645E-03 
1558	 2.84008845342051E-03 
1559	 2.86343982426777E-03 
1560	 2.77365813125573E-03 
1561	 2.51253708142671E-03 
1562	 2.36314551723536E-03 
1563	 2.49210327585207E-03 
1564	 2.48512477498823E-03 
1565	 2.49287900604376E-03 
1566	 2.52736479433282E-03 
1567	 2.61065093410316E-03 
1568	 2.86692531476015E-03 
1569	 2.78946289588333E-03 
1570	 2.65879038347074E-03 
1571	 2.82104639187316E-03 
1572	 2.68450057581467E-03 
1573	 2.61462367854997E-03 
1574	 2.98167478887428E-03 
1575	 2.95951230822102E-03 
1576	 2.63915528883548E-03 
1577	 2.69206959710345E-03 
1578	 2.74118679904831E-03 
1579	 2.64459323450441E-03 
1580	 2.78983406103673E-03 
1581	 2.91250077080328E-03 
1582	 2.77231581981626E-03 
1583	 2.67582353918541E-03 
1584	 2.69784145188323E-03 
1585	 2.6326865282768E-03 
1586	 2.48147687901705E-03 
1587	 2.5711752992108E-03 
1588	 2.71670487887528E-03 
1589	 2.5016953648546E-03 
1590	 2.36803436493912E-03 
1591	 2.4395578554098E-03 
1592	 2.47181574192585E-03 
1593	 2.59152566749876E-03 
1594	 2.63879967046243E-03 
1595	 2.48291187006487E-03 
1596	 2.37102911714967E-03 
1597	 2.43188433171706E-03 
1598	 2.62891183933589E-03 
1599	 2.73168148910475E-03 
1600	 0.002596147121786 
1601	 2.52699576248126E-03 
1602	 2.63245247185095E-03 
1603	 2.82178499614454E-03 
1604	 2.84745309387966E-03 
1605	 2.74282985087218E-03 
1606	 2.77375917440288E-03 
1607	 2.70533933428826E-03 
1608	 2.63465906525444E-03 
1609	 2.63828067011456E-03 
1610	 2.64663555790786E-03 
1611	 2.69336100503296E-03 
1612	 2.4926970363859E-03 
1613	 2.36092072157935E-03 
1614	 2.50591808870306E-03 
1615	 2.5634365830649E-03 
1616	 2.66968689383226E-03 
1617	 2.62710788399796E-03 
1618	 2.47796164196496E-03 
1619	 2.70283062808821E-03 
1620	 2.89859780401142E-03 
1621	 2.94761097709647E-03 
1622	 3.07357926324935E-03 
1623	 2.94412964752449E-03 
1624	 2.72350346343609E-03 
1625	 2.8408090590067E-03 
1626	 2.89899067058863E-03 
1627	 2.72651276174505E-03 
1628	 2.69849448158071E-03 
1629	 2.77034104473244E-03 
1630	 2.78384693969046E-03 
1631	 2.86656874515361E-03 
1632	 2.8707577503086E-03 
1633	 2.59837836029745E-03 
1634	 2.41942207087309E-03 
1635	 2.41694749873885E-03 
1636	 2.48174403894493E-03 
1637	 2.70994540639434E-03 
1638	 2.79428053596119E-03 
1639	 2.63323828571795E-03 
1640	 2.61347669333288E-03 
1641	 2.68340345945862E-03 
1642	 2.50693619326319E-03 
1643	 2.26821919283411E-03 
1644	 2.26152240422363E-03 
1645	 2.38048956406993E-03 
1646	 2.73562745822879E-03 
1647	 3.0947907144892E-03 
1648	 2.86993922215636E-03 
1649	 2.5793575458319E-03 
1650	 2.64889191421634E-03 
1651	 2.79052088189898E-03 
1652	 2.97653927020497E-03 
1653	 3.12985218505012E-03 
1654	 3.07177327533373E-03 
1655	 2.8492341101656E-03 
1656	 2.80353904091967E-03 
1657	 2.69054992207964E-03 
1658	 2.57097903856183E-03 
1659	 2.60119415817157E-03 
1660	 2.54915455372737E-03 
1661	 2.3201998583476E-03 
1662	 2.37134212258581E-03 
1663	 2.65867700351084E-03 
1664	 2.60086124215006E-03 
1665	 2.4468907629718E-03 
1666	 2.50699535590166E-03 
1667	 2.45507526279644E-03 
1668	 2.52117896547738E-03 
1669	 2.51219493366119E-03 
1670	 2.57945535739297E-03 
1671	 3.0253978789142E-03 
1672	 3.02050719023543E-03 
1673	 2.86449951705905E-03 
1674	 3.0587756881929E-03 
1675	 2.92404021708057E-03 
1676	 2.76679941840266E-03 
1677	 2.86517501849687E-03 
1678	 2.68686820424452E-03 
1679	 2.35390326019943E-03 
1680	 2.34764136225273E-03 
1681	 2.67974736220146E-03 
1682	 2.66944037683547E-03 
1683	 2.45865065622061E-03 
1684	 2.79127690587744E-03 
1685	 2.95148628954476E-03 
1686	 2.66019448843155E-03 
1687	 2.66283913490334E-03 
1688	 2.50833621790264E-03 
1689	 2.2002259897926E-03 
1690	 2.41278399572693E-03 
1691	 2.4468486633309E-03 
1692	 2.1152967923641E-03 
1693	 2.06580438186362E-03 
1694	 2.16184140661591E-03 
1695	 2.28388075090471E-03 
1696	 2.51138248772225E-03 
1697	 2.51481250450402E-03 
1698	 2.35271927406513E-03 
1699	 2.61349983037198E-03 
1700	 2.95930826595444E-03 
1701	 3.03774947096885E-03 
1702	 3.25192545631642E-03 
1703	 3.00009665208195E-03 
1704	 2.31372231367388E-03 
1705	 2.13944538407579E-03 
1706	 2.37528021019451E-03 
1707	 2.50822130381463E-03 
1708	 2.59466640174004E-03 
1709	 2.92725932773132E-03 
1710	 2.74518761000422E-03 
1711	 2.35716161512398E-03 
1712	 2.62409644389921E-03 
1713	 2.61960736469342E-03 
1714	 2.57049107925336E-03 
1715	 2.68582253466123E-03 
1716	 2.54465635347249E-03 
1717	 2.38183183050909E-03 
1718	 2.48896333255415E-03 
1719	 2.68617531981335E-03 
1720	 2.59898270402954E-03 
1721	 2.52583911080882E-03 
1722	 2.70926730903364E-03 
1723	 2.64612210797947E-03 
1724	 2.39925513926782E-03 
1725	 2.52426901420345E-03 
1726	 2.65590766494406E-03 
1727	 2.46567967878226E-03 
1728	 2.53687082082888E-03 
1729	 2.89559021370845E-03 
1730	 2.79257140927681E-03 
1731	 2.57740077348425E-03 
1732	 2.57627048678276E-03 
1733	 2.20109660552586E-03 
1734	 2.13266573741245E-03 
1735	 2.62727407373003E-03 
1736	 2.78252236626315E-03 
1737	 2.73092493200379E-03 
1738	 2.92200808010198E-03 
1739	 3.05315416399094E-03 
1740	 2.87611769181778E-03 
1741	 2.86493954371082E-03 
1742	 2.58560297190242E-03 
1743	 1.93289777583189E-03 
1744	 2.15990930695425E-03 
1745	 2.89936114059469E-03 
1746	 2.87704672092788E-03 
1747	 2.82572922633197E-03 
1748	 2.13241878189151E-03 
1749	 2.01788070016796E-03 
1750	 2.74834724832837E-03 
1751	 2.7923962707214E-03 
1752	 2.58071612783268E-03 
1753	 2.62732295671177E-03 
1754	 2.21199254537189E-03 
1755	 1.92639837053697E-03 
1756	 2.22364693496405E-03 
1757	 2.68642361214441E-03 
1758	 2.26242551461859E-03 
1759	 2.33090446541926E-03 
1760	 2.78292043323709E-03 
1761	 2.81305751494514E-03 
1762	 2.97473824435837E-03 
1763	 3.57400567981103E-03 
1764	 3.44700966425338E-03 
1765	 2.66217528334016E-03 
1766	 2.62837307712611E-03 
1767	 2.75721320030816E-03 
1768	 2.50585994412986E-03 
1769	 2.52591698592394E-03 
1770	 3.3183094986324E-03 
1771	 3.81906886003555E-03 
1772	 2.88294162421976E-03 
1773	 2.05450853311987E-03 
1774	 1.52448008290843E-03 
1775	 3.19844194035243E-03 
1776	 3.55857515869665E-03 
1777	 3.84405005258255E-03 
1778	 4.2028792670459E-03 
1779	 2.6768997481413E-03 
1780	 2.07854787338401E-03 
1781	 3.55242327569669E-03 
1782	 3.55414031718428E-03 
1783	 2.13338529635099E-03 
1784	 2.08650598325138E-03 
1785	 2.45774602076298E-03 
1786	 2.41230460739238E-03 
1787	 2.49582429359613E-03 
1788	 2.56622369671281E-03 
1789	 2.66442778707902E-03 
1790	 2.98337103400518E-03 
1791	 3.53476641584178E-03 
1792	 4.50224913019183E-03 
1793	 3.62518013081328E-03 
1794	 2.6119704151971E-03 
1795	 3.36265355932766E-03 
1796	 5.01427115430013E-03 
1797	 3.72206486571525E-03 
1798	 1.3231853442326E-03 
1799	-1.47093630470464E-04 
1800	-4.81767069237729E-03 
1801	-5.17898476297355E-03 
1802	 5.01852296535094E-03 
1803	 8.17514851309985E-03 
1804	 7.9635881886131E-03 
1805	 9.91826230465614E-03 
1806	 2.3424477054087E-03 
1807	 3.30863888666311E-03 
1808	 2.64612844601375E-02 
1809	 2.97868823962658E-02 
1810	 0.017288604158241 
1811	 2.81089513130078E-03 
1812	-4.75015924965007E-02 
1813	-7.79396409112809E-02 
1814	-0.123358043019117 
1815	-0.11846771919732 
1816	-1.54724677496239E-02 
1817	-4.17766688546884E-02 
1818	 7.70032787768354E-02 
1819	 5.79960930715237E-02 
1820	 0.086337130680971 
1821	 0.341141122988921 
1822	 0.377773735064655 
1823	-0.220605630006788 
1824	-0.354780586989217 
1825	-0.410964519359838 
1826	-0.361591619888012 
1827	-1.77480415560684E-03 
1828	 0.181525286925862 
1829	 0.406906177132979 
1830	 0.544230670181958 
1831	 1.54659132185246 
1832	 1.34797539833321 
1833	 0.563771563009649 
1834	 0.456052068136716 
1835	 0.853872238378454 
1836	 0.740224496516012 
1837	-0.507939150980447 
1838	-0.960079470394787 
1839	-0.408759315805979 
1840	-0.631816706223841 
1841	-1.01813150508098 
1842	-1.71262767983913 
1843	-2.33362767241714 
1844	 14.6708705741209 
1845	 7.96258765535266 
1846	-3.94639533933385 
1847	-1.44252301646643 
1848	-0.459709595501095 
1849	-1.25324048976213 
1850	-2.11261735286689 
1851	 0.489068840757741 
1852	 1.67321094863791 
1853	 1.59416532119933 
1854	 1.52767497685935 
1855	 1.43220542601667 
1856	 1.83958141385447 
1857	 3.52785250670178 
1858	-3.95918194671545 
1859	-1.2949753770556 
1860	-0.505222434028073 
1861	-0.264935017821915 
1862	-1.4556246021348 
1863	-2.75425330964709 
1864	-1.71519456944462 
1865	-4.67936922473115 
1866	 0.965394386537224 
1867	 0.365886110724828 
1868	 0.367422974734252 
1869	 0.293872136717077 
1870	 6.22696217784499E-02 
1871	-5.23730061676174E-02 
1872	-0.809759585030415 
1873	 10.8048469291208 
1874	-2.40005166571138 
1875	-0.749041482946556 
1876	-0.471431131411712 
1877	 0.109131404029887 
1878	-1.56269191482998E-02 
1879	-0.83395251830073 
1880	-1.74515216947123 
1881	-3.15158051844341 
1882	-1.9530927814697 
1883	-0.390558968481587 
1884	 4.21312648343798 
1885	 1.02221329384657 
1886	-5.54764113189204 
1887	 2.328943004055 
1888	 0.563768871456911 
1889	 0.45097511241721 
1890	 0.72732825295847 
1891	 0.663110261796504 
1892	 0.435729926969538 
1893	 1.03892299589919 
1894	 1.03289125548866 
1895	 0.307938405924722 
1896	 0.238831998222512 
1897	 0.267588918359418 
1898	 0.136622195867077 
1899	 0.239476381630119 
1900	 0.165806451085336 
1901	-0.482587787224521 
1902	-0.771040732204996 
1903	 2.16603658979472 
1904	 0.639772160280501 
1905	 0.181863139059828 
1906	-23.2746324423112 
1907	 15.6091761270318 
1908	 13.3692715889638 
1909	 0.110290100298159 
1910	 0.379803498458937 
1911	 1.23344777192542 
1912	 0.27663148521117 
1913	 0.869738367415816 
1914	 1.71500987811958 
1915	 1.26287927764741 
1916	 0.62457128595388 
1917	 0.400668588453926 
1918	 0.181333219496198 
1919	-0.466180754886524 
1920	 2.43745502805846 
1921	 6.07611729069072E-02 
1922	-0.682988272632883 
1923	 9.55919030210873 
1924	 4.45211246059023 
1925	-2.37695249229473 
1926	-2.19141680985536 
1927	-0.667019090707166 
1928	-2.26173317820653E-02 
1929	-0.238985556462909 
1930	-0.254775123010994 
1931	 0.115483132941735 
1932	 0.227360713545952 
1933	 0.192792315294937 
1934	 0.164108802112483 
1935	 0.077013861382862 
1936	 5.54568857804846E-02 
1937	 0.114244088789279 
1938	 0.137871029226074 
1939	 0.136632516854176 
1940	 0.118196462508304 
1941	 0.115197084188831 
1942	 0.100236339414248 
1943	 7.85950805612675E-02 
1944	 6.26664804132811E-02 
1945	 2.87727258607847E-02 
1946	 2.22327927618522E-02 
1947	 0.017408992654606 
1948	 6.61568373860482E-04 
1949	 2.30748714593973E-02 
1950	 0.026459017120812 
1951	 1.15348455694456E-02 
1952	 0.017391538027115 
1953	 3.88057796603541E-02 
1954	 4.18939038074079E-02 
1955	 0.040423612158969 
1956	 5.37939291845663E-02 
1957	 5.03757969875855E-02 
1958	 0.032862322505243 
1959	 2.00778441595181E-02 
1960	 1.26814949883891E-02 
1961	 8.17444926306167E-03 
1962	 6.19909075527783E-03 
1963	 7.11100975893244E-03 
1964	 8.56459852028324E-03 
1965	 6.81039359468891E-03 
1966	 5.41758947844721E-03 
1967	 3.77101887007076E-03 
1968	 3.77735015696593E-03 
1969	 4.13715879032162E-03 
1970	 3.86740081436028E-03 
1971	 3.28559019297556E-03 
1972	 2.90262536869007E-03 
1973	 2.75548289835005E-03 
1974	 2.67894217014823E-03 
1975	 3.6001710445944E-03 
1976	 0.005112141182817 
1977	 4.90642554070587E-03 
1978	 4.65218400575125E-03 
1979	 4.46309448280014E-03 
1980	 4.38920675350119E-03 
1981	 4.05751904680356E-03 
1982	 4.08581678399043E-03 
1983	 3.25944063440625E-03 
1984	 2.4623657049611E-03 
1985	 2.35838222942543E-03 
1986	 2.12740752108919E-03 
1987	 1.73795347026162E-03 
1988	 2.66339746662341E-03 
1989	 3.17091572739312E-03 
1990	 2.31591902512102E-03 
1991	 2.99224695772477E-03 
1992	 3.66467039830478E-03 
1993	 3.31287573216762E-03 
1994	 2.97770571641144E-03 
1995	 2.61873181128199E-03 
1996	 1.80538297158163E-03 
1997	 1.32139134944978E-03 
1998	 1.47782037014415E-03 
1999	 2.85390091169436E-03 
2000	 4.59491708321835E-03 
2001	 4.54153150124623E-03 
2002	 4.75170045688633E-03 
2003	 5.04496312658155E-03 
2004	 3.6963420942056E-03 
2005	 4.32305437833692E-03 
2006	 4.89137736916302E-03 
2007	 4.03016860768877E-03 
2008	 5.30660279757096E-03 
2009	 4.88016584666843E-03 
2010	 2.10060593961082E-03 
2011	 9.19192906331336E-04 
2012	-7.36761258452366E-05 
2013	 1.85649264185266E-04 
2014	-1.28011014654078E-03 
2015	-9.81432471630713E-04 
2016	 3.4653784878077E-04 
2017	-4.29859858352314E-04 
2018	 1.52768267065297E-03 
2019	 3.39825075408306E-03 
2020	 3.10761585059313E-03 
2021	 4.05844795118934E-03 
2022	 3.84474121130914E-03 
2023	 2.93874946704844E-03 
2024	 2.48150341538528E-03 
2025	 2.00136943896429E-03 
2026	 1.79037065456809E-03 
2027	 1.55830527743569E-03 
2028	 1.52934730323395E-03 
2029	 0.002082259718376 
2030	 2.58662304673329E-03 
2031	 2.61740973729355E-03 
2032	 2.70368380632222E-03 
2033	 3.14097175308216E-03 
2034	 2.86792546863043E-03 
2035	 2.27109470544472E-03 
2036	 2.35032924147828E-03 
2037	 2.37334804472867E-03 
2038	 2.02873415900145E-03 
2039	 1.87671096686554E-03 
2040	 2.03838644587462E-03 
2041	 2.27809378844443E-03 
2042	 2.5869064932549E-03 
2043	 2.4444027419573E-03 
2044	 2.20221617310849E-03 
2045	 2.03201269463528E-03 
2046	 1.98218098341675E-03 
2047	 2.35541590382527E-03 
2048	 2.65773815976557E-03 
2049	 2.32915006413053E-03 
2050	 2.02413406008759E-03 
2051	 1.42858792662853E-03 
2052	 1.50752164555254E-03 
2053	 2.70065699964268E-03 
2054	 2.26351803679174E-03 
2055	 1.52099631186411E-03 
2056	 1.2657168612889E-03 
2057	 1.03532239407941E-03 
2058	 6.93047345233808E-04 
2059	-6.75022608321905E-07 
2060	 6.55668736685281E-04 
2061	 2.43223263961314E-03 
2062	 3.19847392352005E-03 
2063	 3.14053855428348E-03 
2064	 3.80842368814893E-03 
2065	 3.10793856975388E-03 
2066	 2.06128482473804E-03 
2067	 2.44058898071512E-03 
2068	 1.87789283262785E-03 
2069	 1.5748565926837E-03 
2070	 1.91459027948169E-03 
2071	 1.29606007201543E-03 
2072	 2.39531317114207E-03 
2073	 2.72220314098389E-03 
2074	 1.96150226054643E-03 
2075	 1.71570542259784E-03 
2076	 2.12979107301881E-03 
2077	 2.17836668495336E-03 
2078	 2.38381217506401E-03 
2079	 2.45405845329295E-03 
2080	 2.81269849160232E-03 
2081	 1.87211301875906E-03 
2082	 1.04274568986349E-03 
2083	 4.28391209413172E-04 
2084	 7.00568561591503E-04 
2085	 1.02899075832108E-03 
2086	 1.12706547029457E-03 
2087	 1.67981703163997E-03 
2088	 2.15387156522365E-03 
2089	 2.20631115245215E-03 
2090	 2.08772920829397E-03 
2091	 2.09462584180227E-03 
2092	 2.27773557261251E-03 
2093	 2.41571267192763E-03 
2094	 2.47421902515829E-03 
2095	 2.84239204640996E-03 
2096	 2.82296796426432E-03 
2097	 2.01912947824098E-03 
2098	 2.02084987207392E-03 
2099	 2.44871024570807E-03 
2100	 2.95605511259372E-03 
2101	 3.20799511358353E-03 
2102	 3.08183390641135E-03 
2103	 2.90710628971265E-03 
2104	 2.31486192668962E-03 
2105	 1.65361531535974E-03 
2106	 1.66231326119137E-03 
2107	 1.96745291383429E-03 
2108	 2.08638763488438E-03 
2109	 1.9694538312046E-03 
2110	 1.65747674988225E-03 
2111	 9.01813156791447E-04 
2112	 3.46845263417804E-04 
2113	 1.5218511999946E-04 
2114	 6.43614189106756E-04 
2115	 7.78307788158499E-04 
2116	 8.92929612756222E-04 
2117	 1.28209930531419E-03 
2118	 2.12721675725021E-03 
2119	 2.27985010158337E-03 
2120	 2.2727361457092E-03 
2121	 1.89522848690587E-03 
2122	 1.69669925791494E-03 
2123	 2.01604680141329E-03 
2124	 2.34787806010898E-03 
2125	 2.98255113460153E-03 
2126	 3.15847233239152E-03 
2127	 2.51982928784308E-03 
2128	 2.92062272045299E-03 
2129	 2.95524828127581E-03 
2130	 2.55494931560656E-03 
2131	 3.0515489180348E-03 
2132	 3.37195238693036E-03 
2133	 3.06605942106797E-03 
2134	 2.96862264660408E-03 
2135	 3.09675127882158E-03 
2136	 2.87877592975951E-03 
2137	 2.03697014225864E-03 
2138	 2.2185262939655E-03 
2139	 2.78649685732374E-03 
2140	 2.99915932082321E-03 
2141	 4.06433458221841E-03 
2142	 4.05011691446126E-03 
2143	 3.0539135035107E-03 
2144	 2.48075898112623E-03 
2145	 1.94555807142875E-03 
2146	 2.28424152833166E-03 
2147	 2.50913356754164E-03 
2148	 2.29535802468281E-03 
2149	 1.60825239561831E-03 
2150	 7.2481530835327E-04 
2151	 1.34846890087406E-03 
2152	 2.0684959563136E-03 
2153	 2.1375728742248E-03 
2154	 1.94877223972804E-03 
2155	 1.09818435422028E-03 
2156	-4.83347877042601E-04 
2157	-7.09327031730408E-04 
2158	 4.90650425963151E-04 
2159	 5.64584907276767E-04 
2160	 5.76404423402234E-04 
2161	 1.1624535717013E-03 
2162	 1.59939262794186E-03 
2163	 1.74363337843929E-03 
2164	 2.16247598544714E-03 
2165	 2.55524414405475E-03 
2166	 2.78323170005088E-03 
2167	 2.79881426560225E-03 
2168	 3.18677685135925E-03 
2169	 2.89743778650233E-03 
2170	 1.48120334407625E-03 
2171	 5.97108550765845E-04 
2172	 9.20574274833741E-04 
2173	 1.67214060002415E-03 
2174	 2.62623557745699E-03 
2175	 2.47843186488127E-03 
2176	 1.30863816432927E-03 
2177	 9.50675401112665E-04 
2178	 1.21629990228239E-03 
2179	 1.99601462283446E-03 
2180	 2.69928077599324E-03 
2181	 2.94758356467136E-03 
2182	 2.88759355810681E-03 
2183	 2.92908157993031E-03 
2184	 3.62873827477666E-03 
2185	 3.55103131395796E-03 
2186	 3.25362843705404E-03 
2187	 2.86649902720852E-03 
2188	 2.39136697286697E-03 
2189	 8.55364830167988E-04 
2190	 8.57706524581355E-04 
2191	 2.16963834312806E-03 
2192	 2.62627057735315E-03 
2193	 3.44457560065251E-03 
2194	 3.51773641433817E-03 
2195	 2.25613784685734E-03 
2196	 2.09809462380926E-03 
2197	 2.54585471611163E-03 
2198	 2.74992161639628E-03 
2199	 3.45608079104012E-03 
2200	 4.17386977148903E-03 
2201	 3.56080763621883E-03 
2202	 2.25870587664406E-03 
2203	 1.80419344421302E-03 
2204	 1.96406293088145E-03 
2205	 2.15440559370781E-03 
2206	 2.8068845612608E-03 
2207	 2.63791908781179E-03 
2208	 8.35481167265231E-04 
2209	-3.46386871749169E-04 
2210	-1.41972264838724E-04 
2211	 1.91345490236379E-03 
2212	 4.1293063437337E-03 
2213	 3.99610038628668E-03 
2214	 2.73123918857613E-03 
2215	 5.49632756289349E-04 
2216	-1.68304304947414E-03 
2217	-1.68535167213723E-03 
2218	 1.5643190634597E-03 
2219	 2.04488154257907E-03 
2220	 2.46323219133752E-03 
2221	 2.33169188273361E-03 
2222	 6.65153188533422E-05 
2223	-2.77304443361896E-04 
2224	 7.30007560547963E-04 
2225	 1.1407297595406E-03 
2226	 1.71244639856374E-03 
2227	 2.36586739351021E-03 
2228	 2.9451105541102E-03 
2229	 3.23145561998653E-03 
2230	 3.98442261813047E-03 
2231	 4.02090130420188E-03 
2232	 3.10863518190121E-03 
2233	 2.46346154029427E-03 
2234	 1.39364081395445E-03 
2235	 1.34391902727778E-03 
2236	-1.86954661417294E-05 
2237	-9.06910749805228E-04 
2238	 6.61877981699234E-04 
2239	 7.06921842188168E-04 
2240	 1.09815359025093E-04 
2241	 1.73323005624542E-03 
2242	 1.88014209549806E-03 
2243	 1.69637685187557E-03 
2244	 4.05662877417462E-03 
2245	 4.8350777824509E-03 
2246	 4.48350168806485E-03 
2247	 4.46016862501469E-03 
2248	 2.80982282150624E-03 
2249	 3.23219003373459E-03 
2250	 5.31491598685564E-03 
2251	 3.99118984828436E-03 
2252	 2.72785099950793E-03 
2253	 2.92697924603259E-03 
2254	 2.64675033407672E-03 
2255	 3.97955723216338E-03 
2256	 4.70655424337071E-03 
2257	 4.17263278803716E-03 
2258	 2.98951912006051E-03 
2259	 1.34200096276759E-03 
2260	 8.88725640851713E-04 
2261	 1.87569058301443E-03 
2262	 2.20021324882801E-03 
2263	 3.07096202270799E-03 
2264	 2.66104090166931E-03 
2265	 1.37617908203228E-03 
2266	 9.93119444146998E-04 
2267	 7.65985325588891E-04 
2268	 6.91465643877284E-04 
2269	 6.25839375614643E-04 
2270	 9.37400385946317E-04 
2271	 6.72192216453438E-04 
2272	 5.82703886708401E-04 
2273	 2.41074086409418E-03 
2274	 3.28235979732371E-03 
2275	 3.20745363478384E-03 
2276	 3.56690980043803E-03 
2277	 3.4585802230845E-03 
2278	 3.44598640413647E-03 
2279	 4.01317576211538E-03 
2280	 4.14997719648098E-03 
2281	 4.15295654946279E-03 
2282	 3.78138886465125E-03 
2283	 3.61518776583108E-03 
2284	 3.0643080869904E-03 
2285	 2.49048975991742E-03 
2286	 2.05180274113685E-03 
2287	 2.30767782654003E-03 
2288	 3.50171410199938E-03 
2289	 3.34186038789766E-03 
2290	 4.53377578673907E-03 
2291	 5.38993536564114E-03 
2292	 3.84728186277668E-03 
2293	 2.68829678179624E-03 
2294	 2.06800696955269E-03 
2295	 1.73570400567208E-03 
2296	 1.91287054071055E-03 
2297	 2.68479838329921E-03 
2298	 6.48162452781061E-04 
2299	-2.29441325268114E-03 
2300	-2.17579293901452E-03 
2301	-2.72288869035584E-03 
2302	-3.08186217545829E-03 
2303	-1.09438081952974E-03 
2304	 1.04185982106041E-03 
2305	 1.40498605361924E-03 
2306	 2.90010572572285E-03 
2307	 6.20736661589333E-03 
2308	 3.93471356489682E-03 
2309	 1.06127951777483E-03 
2310	 3.38492939097988E-03 
2311	 1.99104344505148E-03 
2312	-1.83014522558945E-03 
2313	-6.89391101938953E-04 
2314	-5.60077573197016E-04 
2315	 1.64472456540483E-03 
2316	 6.73886306589442E-03 
2317	 4.48108998541539E-03 
2318	 5.67416385041225E-03 
2319	 7.88885561341174E-03 
2320	 4.04538827024643E-03 
2321	 6.11328554563529E-03 
2322	 5.97181064981784E-03 
2323	 2.43479127942802E-03 
2324	 4.0739428697763E-03 
2325	 4.67303173438787E-03 
2326	 4.82579528038462E-03 
2327	 0.001509397829693 
2328	-1.82226904484901E-03 
2329	 1.23612153556971E-03 
2330	 1.58460603930281E-03 
2331	-1.01133113401755E-03 
2332	-2.00282029019035E-03 
2333	-3.22502683701584E-03 
2334	-2.90162095811956E-03 
2335	 2.02978762539807E-03 
2336	 5.56480775831229E-03 
2337	 6.67809187114297E-03 
2338	 6.30065982860802E-03 
2339	 3.16301723777655E-03 
2340	 6.8622753945258E-03 
2341	 1.09877143659178E-02 
2342	 1.09863924544691E-02 
2343	 1.41233760215517E-02 
2344	 1.32689668778708E-02 
2345	 1.03413970817906E-02 
2346	 5.4887624032993E-03 
2347	-5.47526064336423E-04 
2348	 5.94952755339601E-04 
2349	-1.69401078150278E-04 
2350	 1.14044677226291E-03 
2351	 0.01253613827812 
2352	 1.74873634593996E-02 
2353	 1.84891637076524E-02 
2354	 2.16750873207378E-02 
2355	 1.33762345970269E-02 
2356	 6.09542683402388E-04 
2357	 8.37676919194668E-04 
2358	-7.26205891787979E-04 
2359	-8.33653048627987E-03 
2360	-4.93299935664628E-03 
2361	-5.52908999518392E-03 
2362	-1.09276011738141E-02 
2363	-1.26862889310794E-02 
2364	-1.32415542231859E-02 
2365	-9.97509237224162E-03 
2366	-5.1008747853865E-03 
2367	 9.18496148579605E-03 
2368	 1.57926986107418E-02 
2369	 6.81165103356222E-03 
2370	 4.9122200092571E-04 
2371	-1.11476886704135E-02 
2372	-1.95824763627773E-02 
2373	-2.35560406686983E-02 
2374	-0.026661864957209 
2375	-6.40031985131206E-03 
2376	 1.12792953830145E-02 
2377	 1.30122171780962E-02 
2378	 2.02774452470304E-02 
2379	 4.74663235500702E-03 
2380	-2.76756995267519E-02 
2381	-2.99209635364776E-02 
2382	-2.17667341160142E-02 
2383	-2.29786742980626E-02 
2384	-7.23916166417831E-03 
2385	 0.008308758701948 
2386	 5.67785137896275E-03 
2387	 4.65861128890016E-03 
2388	 6.56448211491598E-03 
2389	-6.04788136213216E-03 
2390	-3.00995561448868E-02 
2391	-2.98709875285496E-02 
2392	-1.73532047865961E-02 
2393	-2.38470734367812E-02 
2394	-2.00947780385816E-02 
2395	-1.61889988827642E-02 
2396	-2.32979803506502E-02 
2397	-5.9670332573406E-03 
2398	 0.010740074242561 
2399	 1.36095857507681E-02 
2400	 8.78205861168599E-03 
2401	-1.89128214838058E-02 
2402	-2.26134198265817E-02 
2403	-1.69093735592645E-02 
2404	-2.75502001283613E-02 
2405	-1.69437350158731E-02 
2406	-1.49584049680105E-02 
2407	-5.39479073357795E-03 
2408	 3.56309858483664E-02 
2409	 6.71803147730725E-02 
2410	 6.62450438473345E-02 
2411	 3.87233551717605E-02 
2412	-0.017988682511227 
2413	-6.40065363798167E-02 
2414	-4.00688386846041E-02 
2415	-6.70118117311859E-03 
2416	 4.75022497770355E-03 
2417	 2.71436094625463E-02 
2418	 3.85169878886942E-02 
2419	 5.70541998511147E-02 
2420	 7.48084961009394E-02 
2421	 0.100831881087443 
2422	 8.94801178039129E-02 
2423	 3.88932697242321E-02 
2424	 3.14805003959077E-02 
2425	 0.035257575610713 
2426	 4.72796341991262E-02 
2427	 3.60745353733513E-02 
2428	 2.34628109085562E-02 
2429	 4.96021415061831E-02 
2430	 0.069061711826054 
2431	 8.50168533690307E-02 
2432	 9.78029891023237E-02 
2433	 0.072265102766686 
2434	 1.06483199054884E-02 
2435	-1.24195654938986E-02 
2436	 3.44878179871648E-02 
2437	 8.54107806838579E-02 
2438	 0.12093884920362 
2439	 0.168731217190155 
2440	 0.191548029975403 
2441	 9.03215687912945E-02 
2442	 1.77348021537094E-02 
2443	 6.06272226089824E-02 
2444	 1.60034489700228E-02 
2445	 0.112584264153976 
2446	 0.356539626865166 
2447	 0.105451216568317 
2448	 3.86006783222528E-02 
2449	-0.155324138510032 
2450	-0.221661617767214 
2451	-0.189630021972812 
2452	-0.325918955263606 
2453	-0.399518649984827 
2454	-0.484154449975702 
2455	-0.299654341089057 
2456	-0.174197792564768 
2457	-1.61395624669738E-03 
2458	 0.07638334515564 
2459	-8.25461425373059E-02 
2460	-7.97176788187006E-02 
2461	-0.129642977694067 
2462	-0.135492486006313 
2463	 0.121938721656886 
2464	-0.124261869643289 
2465	-0.199208525099509 
2466	-0.315459780214624 
2467	-0.515828561118478 
2468	-0.479489676876439 
2469	-0.464712119182862 
2470	-0.16630204951429 
2471	 0.212887842477565 
2472	 0.214229555977589 
2473	 0.138506900991016 
2474	 0.110128785091593 
2475	 0.41138746713199 
2476	 0.14297724999874 
2477	-0.219636932814615 
2478	-9.44931951325614E-02 
2479	 1.04483503158763E-03 
2480	-0.227912287397183 
2481	-0.624466968186238 
2482	-1.92428425169234 
2483	-2.23947154982758 
2484	 46.1291359455877 
2485	 2.8744181699306 
2486	 0.968748863694006 
2487	 0.934414264027831 
2488	 0.337571029098144 
2489	-0.227449169678664 
2490	 8.35301406593101E-02 
2491	 0.625941809389384 
2492	 2.67570409040352 
2493	-1.99661883362204 
2494	 1.87795363628996 
2495	 17.4384501457357 
2496	 11.6297158496794 
2497	-11.9508742422087 
2498	-0.125112189210238 
2499	-0.190277228688398 
2500	 7.04522048991153E-02 
