Wavelength	rt0718west_far00004.asd
350	 2.08199650925014E-02 
351	 2.04392775938798E-02 
352	 2.08273204172303E-02 
353	 2.10426134831186E-02 
354	 2.06823125875485E-02 
355	 2.10226438825188E-02 
356	 2.13132022365723E-02 
357	 2.12855234789116E-02 
358	 2.09394321235449E-02 
359	 2.06508051240709E-02 
360	 2.08420471577095E-02 
361	 2.11803599413668E-02 
362	 2.09784400494083E-02 
363	 2.14724934464021E-02 
364	 2.16954216929089E-02 
365	 2.13026393515992E-02 
366	 2.12580729189226E-02 
367	 2.15117352054583E-02 
368	 2.17304427816969E-02 
369	 2.17378998002211E-02 
370	 2.22961387505081E-02 
371	 2.24140217283887E-02 
372	 2.21116966671623E-02 
373	 2.20232438946677E-02 
374	 2.22958308345344E-02 
375	 2.28889629101644E-02 
376	 2.33363176023809E-02 
377	 2.26983890393318E-02 
378	 0.022910715604748 
379	 2.34445549034507E-02 
380	 2.35299412045091E-02 
381	 2.36044760074957E-02 
382	 2.37336832115065E-02 
383	 2.38782570051643E-02 
384	 2.39784905368897E-02 
385	 2.42244174694141E-02 
386	 2.49365028494365E-02 
387	 2.55818110603535E-02 
388	 2.48245620316044E-02 
389	 2.49443298156591E-02 
390	 0.025433319527426 
391	 2.56010851312802E-02 
392	 2.57210057905567E-02 
393	 2.59110521116442E-02 
394	 2.62717119174038E-02 
395	 2.67637043735966E-02 
396	 0.026769547675017 
397	 2.68480719949775E-02 
398	 0.027064993827315 
399	 2.70370763608011E-02 
400	 2.72573478800047E-02 
401	 2.74935875196293E-02 
402	 2.75667663367222E-02 
403	 2.76505380222589E-02 
404	 2.77587005399557E-02 
405	 2.78985646556663E-02 
406	 2.80490236617954E-02 
407	 2.80530798798741E-02 
408	 2.82724465132009E-02 
409	 2.86169363158754E-02 
410	 2.85747463189938E-02 
411	 2.88219855098644E-02 
412	 2.91516749861179E-02 
413	 2.93222674825839E-02 
414	 2.93893814793709E-02 
415	 2.94545820197968E-02 
416	 0.029669165271116 
417	 3.01102541440578E-02 
418	 3.03526610382044E-02 
419	 3.05556514275443E-02 
420	 3.08044063468381E-02 
421	 3.10565287834085E-02 
422	 3.12193186727131E-02 
423	 3.14188878062653E-02 
424	 3.17289744102001E-02 
425	 3.19461300055141E-02 
426	 3.22227269567824E-02 
427	 3.25445478121614E-02 
428	 3.28374035058443E-02 
429	 3.32337142994365E-02 
430	 3.35529537578438E-02 
431	 3.38117883301947E-02 
432	 3.42818593997721E-02 
433	 3.46522216201094E-02 
434	 3.49102538918788E-02 
435	 3.51492269768678E-02 
436	 3.55693950508368E-02 
437	 3.59098375477915E-02 
438	 0.03618450287632 
439	 3.65460043128253E-02 
440	 3.69262616965641E-02 
441	 3.73191276572166E-02 
442	 0.037718253232696 
443	 3.81122648972331E-02 
444	 3.84170155465652E-02 
445	 3.87093081455669E-02 
446	 0.039073152142784 
447	 3.94531016162529E-02 
448	 0.039714598100189 
449	 3.99125494090571E-02 
450	 4.02272937891876E-02 
451	 4.05167075162882E-02 
452	 4.07576677126547E-02 
453	 4.09732508177309E-02 
454	 4.12468980957145E-02 
455	 4.14705242657656E-02 
456	 4.16491921326282E-02 
457	 4.18324984967136E-02 
458	 4.20678511157284E-02 
459	 4.22728308516369E-02 
460	 4.24178676761239E-02 
461	 4.25362206157034E-02 
462	 4.27058759293527E-02 
463	 4.29494921526385E-02 
464	 4.32007367861614E-02 
465	 4.31597553611911E-02 
466	 4.33473346767976E-02 
467	 4.36693081254251E-02 
468	 4.37821974340046E-02 
469	 4.39852691842054E-02 
470	 4.42220245027188E-02 
471	 4.44277997175263E-02 
472	 4.45677696227462E-02 
473	 4.49001473819434E-02 
474	 4.52155398374193E-02 
475	 4.53278693811883E-02 
476	 4.55873935391807E-02 
477	 4.58373367193929E-02 
478	 4.60998456495178E-02 
479	 4.64942078146223E-02 
480	 0.046760793539105 
481	 4.69890570153958E-02 
482	 4.72526134539896E-02 
483	 0.047489168005251 
484	 4.77702254468567E-02 
485	 4.80475588185036E-02 
486	 4.82984591138561E-02 
487	 4.88902814983617E-02 
488	 0.049340141066293 
489	 4.95553795076804E-02 
490	 4.98608416923804E-02 
491	 5.03247965663804E-02 
492	 0.05078790906329 
493	 5.11529682087661E-02 
494	 5.16411788714609E-02 
495	 5.20971901421395E-02 
496	 5.25421671919146E-02 
497	 5.30656837764329E-02 
498	 5.35299852293008E-02 
499	 5.39666065855259E-02 
500	 0.054422563940426 
501	 5.49384438771489E-02 
502	 5.55130105757937E-02 
503	 5.61310686410196E-02 
504	 5.67392709207758E-02 
505	 5.71418882585771E-02 
506	 0.05760460878984 
507	 5.81889719371855E-02 
508	 0.058778589235115 
509	 5.92924589965885E-02 
510	 5.98239182230823E-02 
511	 6.04332789661446E-02 
512	 6.10427193541944E-02 
513	 6.16402794369676E-02 
514	 6.22552847209272E-02 
515	 6.29243830119566E-02 
516	 6.36075414993173E-02 
517	 0.064268252288125 
518	 6.49484018889684E-02 
519	 6.57817172359143E-02 
520	 6.64910514211666E-02 
521	 6.71648329122975E-02 
522	 6.79254166113354E-02 
523	 6.86857166115119E-02 
524	 6.94329295039953E-02 
525	 7.01562881861261E-02 
526	 7.08598857940429E-02 
527	 0.071618940103573 
528	 7.24561344801699E-02 
529	 7.33127928403832E-02 
530	 7.39755811802782E-02 
531	 7.48000541484481E-02 
532	 7.56850825939167E-02 
533	 0.076421625901528 
534	 7.72874881891521E-02 
535	 7.81459395036972E-02 
536	 7.89367343955874E-02 
537	 7.97095098137299E-02 
538	 8.05282059121735E-02 
539	 8.14107015205456E-02 
540	 8.23320168285702E-02 
541	 8.31894881604167E-02 
542	 8.40291695580724E-02 
543	 8.48674620416291E-02 
544	 8.57076409714713E-02 
545	 8.65996288337244E-02 
546	 8.74400764318818E-02 
547	 8.82085742848426E-02 
548	 0.089086710361007 
549	 8.98969364613497E-02 
550	 0.090692701067291 
551	 9.15805044822338E-02 
552	 9.24739585097132E-02 
553	 9.32953790629872E-02 
554	 0.094058621147124 
555	 9.48726336903979E-02 
556	 9.57289094971391E-02 
557	 9.65734475639712E-02 
558	 9.73697835189281E-02 
559	 9.82337708501412E-02 
560	 9.89346899743579E-02 
561	 9.95377522757655E-02 
562	 0.100278359057425 
563	 0.101025369973499 
564	 0.101688179885176 
565	 0.102249176707933 
566	 0.102819666423704 
567	 0.103392236143016 
568	 0.103932395636443 
569	 0.104413172748025 
570	 0.104947097613805 
571	 0.105408191636519 
572	 0.105781029176355 
573	 0.106180407327031 
574	 0.106541213518632 
575	 0.10682414879374 
576	 0.107022739936262 
577	 0.107227978693619 
578	 0.107353961076523 
579	 0.107409513073223 
580	 0.107456890519602 
581	 0.107463490175915 
582	 0.107366923943545 
583	 0.107185319168892 
584	 0.107101077665094 
585	 0.106845424625062 
586	 0.106504794220422 
587	 0.106233762504847 
588	 0.105782992501384 
589	 0.105421953597092 
590	 0.105160655419192 
591	 0.104693961751838 
592	 0.104209646316314 
593	 0.103637168324164 
594	 0.102926597863301 
595	 0.102224677176039 
596	 0.101299500307037 
597	 0.100189726698287 
598	 9.90943987239004E-02 
599	 0.098011891414768 
600	 9.70846077757424E-02 
601	 9.63602555679794E-02 
602	 9.56896863572957E-02 
603	 9.53103531933353E-02 
604	 9.51062269633872E-02 
605	 0.09490271805675 
606	 9.48619119083962E-02 
607	 9.48146624263277E-02 
608	 9.47559422994247E-02 
609	 9.48534136650713E-02 
610	 0.094850623954698 
611	 0.094818820570268 
612	 9.48410814777665E-02 
613	 9.48221867186024E-02 
614	 9.47784088179037E-02 
615	 9.47433498101276E-02 
616	 9.47453767735647E-02 
617	 0.094651514930675 
618	 9.45794058453099E-02 
619	 9.45728423874724E-02 
620	 9.45166753860361E-02 
621	 9.44502663006896E-02 
622	 0.094409799379739 
623	 9.44179225683127E-02 
624	 9.44356650138736E-02 
625	 9.43945966073625E-02 
626	 9.42658363161846E-02 
627	 9.40706759875135E-02 
628	 9.40400707467539E-02 
629	 9.40506066221139E-02 
630	 9.39875234331607E-02 
631	 9.39632603276442E-02 
632	 9.38961971526845E-02 
633	 9.37973263198814E-02 
634	 9.37166424170545E-02 
635	 9.36402608278315E-02 
636	 9.35351848121281E-02 
637	 9.34213700207988E-02 
638	 9.33980881231847E-02 
639	 9.32642367112128E-02 
640	 9.31048525952424E-02 
641	 0.093034605740332 
642	 9.29025540337822E-02 
643	 9.28660284672679E-02 
644	 9.28350122381938E-02 
645	 9.25423883274604E-02 
646	 9.23356940812708E-02 
647	 9.22535907014132E-02 
648	 9.21982867808858E-02 
649	 0.091897090390853 
650	 9.15220619355043E-02 
651	 9.11846888924661E-02 
652	 9.09181742996455E-02 
653	 9.03433474745847E-02 
654	 8.96806289327974E-02 
655	 8.90091549608534E-02 
656	 8.82505622616534E-02 
657	 8.75100752328498E-02 
658	 8.68491204773055E-02 
659	 8.62799660989164E-02 
660	 8.57897545859227E-02 
661	 8.53721389103439E-02 
662	 8.49851314612232E-02 
663	 8.45799871125271E-02 
664	 8.42062896057133E-02 
665	 8.38856658145341E-02 
666	 0.083625649951228 
667	 8.34255493982864E-02 
668	 8.32761781125249E-02 
669	 8.31013021387093E-02 
670	 8.28554919972307E-02 
671	 8.27407205650751E-02 
672	 8.26794406426112E-02 
673	 8.26020600049247E-02 
674	 8.24715100951004E-02 
675	 8.24844697439787E-02 
676	 8.25317240393469E-02 
677	 0.082525750037771 
678	 8.25818125552592E-02 
679	 8.27164306302601E-02 
680	 8.28509396702979E-02 
681	 8.28888083649547E-02 
682	 8.29498473925664E-02 
683	 8.31280533439239E-02 
684	 8.33543826305306E-02 
685	 8.33557251145752E-02 
686	 8.34906644077772E-02 
687	 8.35812390105219E-02 
688	 8.34058213742716E-02 
689	 8.31780481330332E-02 
690	 8.30029428788224E-02 
691	 8.28160207104293E-02 
692	 8.24511022416856E-02 
693	 8.19614611164128E-02 
694	 0.081338252350065 
695	 8.06531698064648E-02 
696	 8.00345613282179E-02 
697	 7.93420640892373E-02 
698	 7.84356009231105E-02 
699	 7.73011452119804E-02 
700	 7.62837245249647E-02 
701	 7.52519662000392E-02 
702	 7.41103750898939E-02 
703	 7.28083258794831E-02 
704	 7.16343962207604E-02 
705	 7.04207929461825E-02 
706	 6.90426691171798E-02 
707	 6.75432812472732E-02 
708	 6.59895530953306E-02 
709	 6.43538255017438E-02 
710	 6.25704472605871E-02 
711	 6.06263155090407E-02 
712	 5.85687191122809E-02 
713	 0.056501269893157 
714	 5.45251374067137E-02 
715	 5.25546706921753E-02 
716	 5.04312654506257E-02 
717	 4.81580149788692E-02 
718	 4.57862714776117E-02 
719	 0.043511427403563 
720	 4.15972673926695E-02 
721	 3.98385045396367E-02 
722	 3.81299078936583E-02 
723	 3.60919112807033E-02 
724	 0.03394001869399 
725	 3.21358621023078E-02 
726	 0.030144280303552 
727	 2.80301924510077E-02 
728	 2.59584399605048E-02 
729	 2.38380019734053E-02 
730	 2.17239849084799E-02 
731	 1.98781991529387E-02 
732	 1.84550203091222E-02 
733	 1.70850266956545E-02 
734	 1.60038115040262E-02 
735	 1.52640830357892E-02 
736	 1.45936521011973E-02 
737	 1.40360940976004E-02 
738	 1.35692883761612E-02 
739	 1.32028794363596E-02 
740	 1.30482642876523E-02 
741	 1.29547589511126E-02 
742	 1.28695999563344E-02 
743	 1.27984570156403E-02 
744	 1.27447539941373E-02 
745	 1.27253362706843E-02 
746	 1.27180312287334E-02 
747	 1.26481497512457E-02 
748	 0.012587084762877 
749	 1.25645117377843E-02 
750	 1.25753233822879E-02 
751	 1.25378455702123E-02 
752	 1.25337737205108E-02 
753	 1.25542003077312E-02 
754	 1.25407851853026E-02 
755	 1.24739565604095E-02 
756	 0.012467838285177 
757	 0.012551239601058 
758	 1.26334591574342E-02 
759	 1.26634536806568E-02 
760	 1.27226019175883E-02 
761	 1.28611455460997E-02 
762	 1.27639415341313E-02 
763	 1.29280682217643E-02 
764	 1.29966778112007E-02 
765	 1.26482851050118E-02 
766	 1.27431490746373E-02 
767	 1.29878697558461E-02 
768	 1.31787117145589E-02 
769	 1.32014012660557E-02 
770	 1.32176381512827E-02 
771	 1.32859093013409E-02 
772	 1.33983232993059E-02 
773	 1.34065696709832E-02 
774	 1.36608408746459E-02 
775	 1.39797405419285E-02 
776	 1.40418273271049E-02 
777	 1.42095539445005E-02 
778	 1.44654171519822E-02 
779	 1.46997346865417E-02 
780	 1.47592660901424E-02 
781	 1.49113188210349E-02 
782	 1.51598048979973E-02 
783	 1.54450390816815E-02 
784	 1.56900801210523E-02 
785	 1.58759074684799E-02 
786	 1.60968837484025E-02 
787	 1.64394186501335E-02 
788	 1.67235378025602E-02 
789	 1.69511649252013E-02 
790	 1.72303731559542E-02 
791	 1.77063541124615E-02 
792	 1.80385772311201E-02 
793	 1.82301801792577E-02 
794	 1.84018411275849E-02 
795	 1.87683267402951E-02 
796	 1.92007376633604E-02 
797	 1.95192625884376E-02 
798	 1.96675720021447E-02 
799	 2.00107522305632E-02 
800	 2.03018199337945E-02 
801	 0.020495868225772 
802	 2.06785437418033E-02 
803	 2.09242499484329E-02 
804	 2.10902793399042E-02 
805	 2.11345905502367E-02 
806	 2.11505970694586E-02 
807	 2.12762449820509E-02 
808	 2.12942774968023E-02 
809	 2.10804256211801E-02 
810	 2.09214673591221E-02 
811	 2.08446679537391E-02 
812	 2.07424557139955E-02 
813	 2.04541199462912E-02 
814	 1.99844466589881E-02 
815	 0.019724738040633 
816	 1.95884993965809E-02 
817	 1.91306837654835E-02 
818	 1.86336419302232E-02 
819	 1.81547159800964E-02 
820	 1.76633421396637E-02 
821	 1.70864361018299E-02 
822	 1.63801323707233E-02 
823	 1.54832043127553E-02 
824	 1.44536378820782E-02 
825	 0.013455127870001 
826	 1.26543303561181E-02 
827	 1.18592762127998E-02 
828	 1.08528452610064E-02 
829	 0.009911950696117 
830	 9.18738310986542E-03 
831	 8.59953050136362E-03 
832	 7.98742062911233E-03 
833	 7.9914142482173E-03 
834	 7.8314527022781E-03 
835	 7.34636105741328E-03 
836	 7.37117463917134E-03 
837	 7.14915632918767E-03 
838	 6.94931978101557E-03 
839	 6.97532940390005E-03 
840	 6.65630232096418E-03 
841	 6.61860696483428E-03 
842	 6.65062761454633E-03 
843	 6.41329304687707E-03 
844	 6.56172906939346E-03 
845	 6.44114674133416E-03 
846	 6.15418270909186E-03 
847	 6.26411741233558E-03 
848	 6.16976614497898E-03 
849	 5.99230823802673E-03 
850	 5.88090053551629E-03 
851	 5.89596964769423E-03 
852	 5.7281084780092E-03 
853	 5.65059936983193E-03 
854	 5.79038335555671E-03 
855	 5.69752458684024E-03 
856	 0.005823567024718 
857	 5.86705143119933E-03 
858	 5.54722069654184E-03 
859	 5.38381847530523E-03 
860	 5.37236187222603E-03 
861	 5.40796878742974E-03 
862	 5.35738154640262E-03 
863	 5.29768572350554E-03 
864	 5.33555440141884E-03 
865	 5.38632626554395E-03 
866	 5.22926855131622E-03 
867	 5.13709652184164E-03 
868	 4.99480626518615E-03 
869	 4.83382105106263E-03 
870	 4.92291868551388E-03 
871	 4.7480857743779E-03 
872	 4.79966097129186E-03 
873	 5.19967974649241E-03 
874	 0.004765980465467 
875	 4.58029911956553E-03 
876	 4.60523022675333E-03 
877	 4.57523620755669E-03 
878	 4.80166048793778E-03 
879	 4.58497557367422E-03 
880	 4.26164788230102E-03 
881	 4.45713664184741E-03 
882	 4.36726975736388E-03 
883	 4.21496184064459E-03 
884	 4.12629673234494E-03 
885	 4.11885059005515E-03 
886	 4.31683124402182E-03 
887	 0.004227633220986 
888	 3.94239907203294E-03 
889	 4.18783301303451E-03 
890	 3.8308029033356E-03 
891	 3.77783797606325E-03 
892	 4.3594143850328E-03 
893	 4.17897296812131E-03 
894	 4.15828978819024E-03 
895	 4.01548773207815E-03 
896	 3.60072586466384E-03 
897	 4.18750699815458E-03 
898	 4.36428903784831E-03 
899	 4.04559349044634E-03 
900	 3.73667121174146E-03 
901	 3.9899256972221E-03 
902	 3.78061185206664E-03 
903	 3.40639252015786E-03 
904	 3.57022819317522E-03 
905	 4.30518486021961E-03 
906	 3.97916604822487E-03 
907	 2.91940181771194E-03 
908	 2.82949627674033E-03 
909	 3.4587204010548E-03 
910	 3.6234342959092E-03 
911	 3.27808631249151E-03 
912	 3.39828933703268E-03 
913	 3.42659732082444E-03 
914	 3.16448264567231E-03 
915	 2.96852857949549E-03 
916	 3.57344247491226E-03 
917	 3.50332279895444E-03 
918	 3.43760182468907E-03 
919	 3.61043778381657E-03 
920	 3.28529898824596E-03 
921	 3.87685227266492E-03 
922	 4.01916339801273E-03 
923	 3.18712567461925E-03 
924	 3.69271174123457E-03 
925	 4.37557445627567E-03 
926	 4.71266269305282E-03 
927	 4.34201792228441E-03 
928	 2.84329260503886E-03 
929	 3.92254726969933E-03 
930	 5.03407579997134E-03 
931	 1.47732797231813E-03 
932	 2.12632172015243E-03 
933	 3.09977836119879E-03 
934	 3.35745371094033E-03 
935	 3.96323820391063E-03 
936	 6.4264900768432E-03 
937	 5.00691536034789E-03 
938	 3.29234532253086E-03 
939	 5.1718613283801E-03 
940	 4.28626745722951E-03 
941	 3.1412715004566E-03 
942	 2.86605552972033E-03 
943	 3.38075919464617E-03 
944	 2.06256500014499E-03 
945	 7.57304157020893E-04 
946	 1.37816746906135E-03 
947	 4.20831872147192E-03 
948	 3.07072520004638E-03 
949	 3.35626193151651E-03 
950	 4.26336234279977E-03 
951	 2.1376599353658E-03 
952	 3.89271445901184E-03 
953	 3.52906669966434E-03 
954	 1.41998021787007E-03 
955	 2.30697914734683E-03 
956	 4.55961401361077E-03 
957	 5.81896212605117E-03 
958	 5.45579328173273E-03 
959	 4.29416729938718E-03 
960	 2.87195399239866E-03 
961	 2.7063310801852E-03 
962	 3.28459932194898E-03 
963	 2.93478540287796E-03 
964	 2.50529935888992E-03 
965	 3.39663770775826E-03 
966	 4.94572799603465E-03 
967	 5.21443260243277E-03 
968	 4.71599233368585E-03 
969	 2.23495280934403E-03 
970	 8.0975838094957E-04 
971	 5.34296320382367E-03 
972	 4.37058125895573E-03 
973	 2.85150327606503E-03 
974	 2.7333888149636E-03 
975	 1.65934356733172E-03 
976	 3.06925740561237E-03 
977	 4.46606518492578E-03 
978	 4.29201012357192E-03 
979	 2.9362826029279E-03 
980	 2.88693754357221E-03 
981	 3.17057158539618E-03 
982	 3.86453233685175E-03 
983	 5.4824083595399E-03 
984	 2.61457519701827E-03 
985	 1.86598359966371E-03 
986	 4.08689313711401E-03 
987	 4.68842650248446E-03 
988	 2.40649671732415E-03 
989	 1.84864425964903E-03 
990	 3.03499878933022E-03 
991	 2.66978703489014E-03 
992	 3.73760957135539E-03 
993	 3.90558699238013E-03 
994	 2.91948167821898E-03 
995	 2.28419460928765E-03 
996	 2.60972540311476E-03 
997	 2.62800124871112E-03 
998	 2.60916055924758E-03 
999	 3.46639625973313E-03 
1000	 3.58962389513004E-03 
1001	 2.22146183032017E-03 
1002	 2.61306282496418E-03 
1003	 2.82434671829713E-03 
1004	 2.90167357343037E-03 
1005	 2.74880311673925E-03 
1006	 2.41712463152424E-03 
1007	 2.4027817001836E-03 
1008	 2.07241975596189E-03 
1009	 1.75386688360333E-03 
1010	 2.28264230148728E-03 
1011	 2.69703891810005E-03 
1012	 2.95624041496656E-03 
1013	 3.32852034789341E-03 
1014	 3.3516337307287E-03 
1015	 2.92551074975893E-03 
1016	 2.79119733235317E-03 
1017	 2.60783869562275E-03 
1018	 2.49276367535061E-03 
1019	 2.42777892620778E-03 
1020	 2.46711341670382E-03 
1021	 2.66426030503339E-03 
1022	 2.68218660401957E-03 
1023	 2.80542590579701E-03 
1024	 2.63296832225219E-03 
1025	 2.32200395207955E-03 
1026	 2.48859264200909E-03 
1027	 2.65271744308771E-03 
1028	 3.13557450372671E-03 
1029	 3.28521581405794E-03 
1030	 3.3525850553165E-03 
1031	 3.35991159542444E-03 
1032	 3.1882686860501E-03 
1033	 3.14081705811183E-03 
1034	 3.12377364101847E-03 
1035	 3.17349475432562E-03 
1036	 3.36094600400539E-03 
1037	 3.30744709529496E-03 
1038	 3.19277434415348E-03 
1039	 3.00673419000094E-03 
1040	 2.92848600368643E-03 
1041	 2.86570932625022E-03 
1042	 2.74424725136508E-03 
1043	 2.7404770230001E-03 
1044	 2.73223978325587E-03 
1045	 2.50135119788378E-03 
1046	 2.58905623096521E-03 
1047	 3.00291629661388E-03 
1048	 3.19542913969288E-03 
1049	 3.59005490786787E-03 
1050	 3.57268921264978E-03 
1051	 3.09048067100068E-03 
1052	 2.97962557215807E-03 
1053	 2.7929366678039E-03 
1054	 2.67365218367348E-03 
1055	 3.02361830957764E-03 
1056	 3.02272326350732E-03 
1057	 2.86302673325443E-03 
1058	 2.31435040884349E-03 
1059	 2.33665183572811E-03 
1060	 2.47843511684906E-03 
1061	 2.54946455576092E-03 
1062	 3.01552593273404E-03 
1063	 3.08831032542654E-03 
1064	 2.74084460330049E-03 
1065	 2.69973611324445E-03 
1066	 2.79794806167985E-03 
1067	 2.78019741759586E-03 
1068	 2.7886124660717E-03 
1069	 2.76749288080836E-03 
1070	 2.58027329112556E-03 
1071	 2.52296381505082E-03 
1072	 2.37320854051502E-03 
1073	 2.63266473367961E-03 
1074	 2.6713118538763E-03 
1075	 2.72027957896941E-03 
1076	 2.82511062159922E-03 
1077	 2.94256764957119E-03 
1078	 3.01789926147982E-03 
1079	 3.2212388369547E-03 
1080	 3.19066390704073E-03 
1081	 2.90213209060713E-03 
1082	 2.87143934444747E-03 
1083	 2.86708778364779E-03 
1084	 2.85324853404314E-03 
1085	 2.98090459025084E-03 
1086	 3.04309747853953E-03 
1087	 3.06506195284111E-03 
1088	 3.03588727846552E-03 
1089	 2.97171315509684E-03 
1090	 2.99755442348565E-03 
1091	 2.90268907662717E-03 
1092	 2.58491503379175E-03 
1093	 2.51614107968567E-03 
1094	 2.57637826345845E-03 
1095	 2.59509888193405E-03 
1096	 2.72813806521005E-03 
1097	 2.7269541379982E-03 
1098	 2.53760383231416E-03 
1099	 2.54226651131481E-03 
1100	 2.7600630512413E-03 
1101	 2.81585099400585E-03 
1102	 2.71947134890451E-03 
1103	 2.83103912491818E-03 
1104	 3.22372382012338E-03 
1105	 3.04769837841288E-03 
1106	 2.4815797430558E-03 
1107	 0.003018106851695 
1108	 3.00229402909605E-03 
1109	 2.20519392100193E-03 
1110	 2.19388451538671E-03 
1111	 2.96132715035697E-03 
1112	 3.09105792104561E-03 
1113	 3.29147909840825E-03 
1114	 3.44293377020782E-03 
1115	 2.66959726927966E-03 
1116	 2.38172510222476E-03 
1117	 3.1358224661947E-03 
1118	 3.25486823087988E-03 
1119	 2.52302063387027E-03 
1120	 3.16469325360826E-03 
1121	 5.36482037713273E-03 
1122	 5.00562227761098E-03 
1123	 6.82220226881781E-03 
1124	 9.06176211191837E-03 
1125	 6.64488849666068E-03 
1126	 6.26012138811763E-04 
1127	-4.28433358123042E-03 
1128	-1.32677453077534E-03 
1129	-5.86014881510333E-05 
1130	 4.25022000530611E-03 
1131	 5.01299168480837E-03 
1132	 3.97529852026944E-03 
1133	 3.57235951052174E-03 
1134	 3.98863942814616E-03 
1135	 4.17191857536012E-03 
1136	 3.38148978163448E-03 
1137	 3.30913493098906E-03 
1138	 3.42705627909834E-03 
1139	 3.51308582623086E-03 
1140	 2.99463224543085E-03 
1141	 3.20251355969351E-03 
1142	 4.13262617755251E-03 
1143	 3.87051874852533E-03 
1144	 3.36535429523886E-03 
1145	 3.60172356370131E-03 
1146	 2.84472340638169E-03 
1147	 1.54116896999624E-03 
1148	 2.03821487772902E-03 
1149	 3.44410120172347E-03 
1150	 3.60421767895617E-03 
1151	 3.42144464251101E-03 
1152	 3.49725101969306E-03 
1153	 2.79374157134364E-03 
1154	 2.70396655448537E-03 
1155	 3.02957429947853E-03 
1156	 3.63132882112889E-03 
1157	 3.4360699038732E-03 
1158	 3.03208202535162E-03 
1159	 2.99995054176607E-03 
1160	 2.59667611194375E-03 
1161	 1.94226647722215E-03 
1162	 2.37345254852772E-03 
1163	 3.14639863542518E-03 
1164	 2.85614238373012E-03 
1165	 2.68396523629074E-03 
1166	 2.68301667941774E-03 
1167	 2.00897253986847E-03 
1168	 1.87726996835349E-03 
1169	 2.26031195121826E-03 
1170	 2.23507265073791E-03 
1171	 2.24425096736098E-03 
1172	 2.31085890847794E-03 
1173	 2.33028589788961E-03 
1174	 2.29261214546748E-03 
1175	 2.13042220529718E-03 
1176	 1.98374877288537E-03 
1177	 1.98569447280638E-03 
1178	 2.01736146868514E-03 
1179	 2.1337309391395E-03 
1180	 2.58612153687339E-03 
1181	 2.63854761430489E-03 
1182	 2.14083802677149E-03 
1183	 2.22191686094583E-03 
1184	 2.52782175245797E-03 
1185	 2.30021855162987E-03 
1186	 2.31559057482774E-03 
1187	 2.60876661054865E-03 
1188	 2.38161479532676E-03 
1189	 2.19510823323143E-03 
1190	 2.51478415114999E-03 
1191	 2.64268321968416E-03 
1192	 2.63030793943142E-03 
1193	 2.46907206100162E-03 
1194	 2.63673909995279E-03 
1195	 2.74179543612983E-03 
1196	 2.75044879443518E-03 
1197	 2.85058490785375E-03 
1198	 2.74438709029736E-03 
1199	 2.64821868341515E-03 
1200	 2.59732130344971E-03 
1201	 2.36931044247398E-03 
1202	 2.39605754026395E-03 
1203	 2.58669195386493E-03 
1204	 2.54005140583554E-03 
1205	 2.34737367642119E-03 
1206	 2.18716658260372E-03 
1207	 2.11173275856222E-03 
1208	 2.1017598736415E-03 
1209	 2.27016535578932E-03 
1210	 2.50096826850783E-03 
1211	 2.40996557893961E-03 
1212	 2.17647205635778E-03 
1213	 2.22003956586922E-03 
1214	 2.25584814503313E-03 
1215	 2.46141261155101E-03 
1216	 2.49589906932068E-03 
1217	 2.19100220542499E-03 
1218	 2.02340617934693E-03 
1219	 2.22531617341702E-03 
1220	 2.24298656049146E-03 
1221	 2.2788136180492E-03 
1222	 2.56706743793244E-03 
1223	 2.66054309592522E-03 
1224	 2.49114548378189E-03 
1225	 2.47904338224599E-03 
1226	 2.6730297913564E-03 
1227	 2.67121736862923E-03 
1228	 2.5349354471265E-03 
1229	 2.54952753825167E-03 
1230	 2.6808522692099E-03 
1231	 2.61561294869492E-03 
1232	 2.43292048045767E-03 
1233	 2.55428109449004E-03 
1234	 2.63415416864325E-03 
1235	 2.58530526346121E-03 
1236	 2.26416689709587E-03 
1237	 2.26569670193347E-03 
1238	 2.46106048171433E-03 
1239	 2.43809132299731E-03 
1240	 2.40456504097016E-03 
1241	 2.50163598586101E-03 
1242	 2.4572655649251E-03 
1243	 2.26199725733803E-03 
1244	 2.12324321710748E-03 
1245	 2.17386992784398E-03 
1246	 2.3322454304966E-03 
1247	 2.43776762211048E-03 
1248	 2.37336750525132E-03 
1249	 2.23355159563521E-03 
1250	 2.26489305502885E-03 
1251	 2.32342908985694E-03 
1252	 2.26598883066976E-03 
1253	 2.30994278466916E-03 
1254	 2.29589452004194E-03 
1255	 2.08056723336251E-03 
1256	 2.01968594323474E-03 
1257	 2.27955688788207E-03 
1258	 2.3476049963561E-03 
1259	 2.21546364301298E-03 
1260	 2.17223899192337E-03 
1261	 2.23468295017089E-03 
1262	 2.24296631652892E-03 
1263	 2.12207889631356E-03 
1264	 2.1966239684894E-03 
1265	 2.52514151162687E-03 
1266	 2.60342305677117E-03 
1267	 2.47272460056694E-03 
1268	 2.39234725651951E-03 
1269	 2.43786106032011E-03 
1270	 2.4214914196328E-03 
1271	 2.25250754113233E-03 
1272	 2.35134431922331E-03 
1273	 2.51050667911866E-03 
1274	 2.40513456769212E-03 
1275	 2.43227311621845E-03 
1276	 2.58566147332301E-03 
1277	 2.59547578989318E-03 
1278	 2.57786543977414E-03 
1279	 2.59069834985023E-03 
1280	 2.59264282663865E-03 
1281	 2.47616087717669E-03 
1282	 1.95934699080227E-03 
1283	 1.87143000222819E-03 
1284	 2.06521214913969E-03 
1285	 2.16182225901078E-03 
1286	 2.46120238998052E-03 
1287	 2.49896888268946E-03 
1288	 2.32009255935628E-03 
1289	 2.21213151182124E-03 
1290	 1.93675328852186E-03 
1291	 1.92914429307885E-03 
1292	 2.06906442771032E-03 
1293	 2.2146997777961E-03 
1294	 2.36162739748416E-03 
1295	 2.3577454068602E-03 
1296	 0.002430009437279 
1297	 2.38304956727539E-03 
1298	 2.17192911740905E-03 
1299	 2.18214265360322E-03 
1300	 2.40939540921884E-03 
1301	 2.45765039685758E-03 
1302	 2.14250063510087E-03 
1303	 2.18540170653266E-03 
1304	 2.44756383821234E-03 
1305	 2.32035232758589E-03 
1306	 2.33108751030453E-03 
1307	 2.82364451524476E-03 
1308	 2.85025854007278E-03 
1309	 2.30804159413209E-03 
1310	 2.22537500775987E-03 
1311	 2.3836713352655E-03 
1312	 2.34643894202457E-03 
1313	 2.27639902777053E-03 
1314	 0.002264598502194 
1315	 2.29680765505564E-03 
1316	 2.25585137361505E-03 
1317	 1.97356572945557E-03 
1318	 2.09006595757069E-03 
1319	 2.67186824619244E-03 
1320	 2.63633015212876E-03 
1321	 2.20795302204906E-03 
1322	 2.5285687987888E-03 
1323	 2.96461282307193E-03 
1324	 2.8032668288098E-03 
1325	 2.50192161440802E-03 
1326	 2.51766676872525E-03 
1327	 2.75301011699933E-03 
1328	 2.74659794263261E-03 
1329	 2.54535420289685E-03 
1330	 2.72734391019242E-03 
1331	 2.79764019617372E-03 
1332	 2.27801524134748E-03 
1333	 2.51951150646086E-03 
1334	 3.74591958005577E-03 
1335	 4.13790300244734E-03 
1336	 3.43339915662523E-03 
1337	 3.16948422182996E-03 
1338	 3.2442606216981E-03 
1339	 3.34807499017045E-03 
1340	 3.12933150946892E-03 
1341	 2.93986760352901E-03 
1342	 2.96327803927931E-03 
1343	 3.12065501777917E-03 
1344	 3.39721259999889E-03 
1345	 3.31711867688062E-03 
1346	 3.20910265537945E-03 
1347	 3.35709461828551E-03 
1348	 3.06317584215844E-03 
1349	 2.93975676566352E-03 
1350	 4.54137889856497E-03 
1351	 5.15615943788135E-03 
1352	 6.33591272046416E-04 
1353	-5.06725725522385E-04 
1354	 1.28680042855566E-03 
1355	 0.016252326341056 
1356	 4.77958814447508E-02 
1357	 5.59741320459883E-02 
1358	 8.39743094062802E-02 
1359	 0.142830868693374 
1360	 0.115475592711422 
1361	 0.066912921917218 
1362	 5.95751598969845E-02 
1363	 4.93060193726141E-02 
1364	 1.35301839917958E-02 
1365	 0.031366923327632 
1366	 0.151050540817942 
1367	 0.216101289308695 
1368	 0.19073891902982 
1369	 0.220590632477979 
1370	 0.263958645280082 
1371	 6.39807068180378E-02 
1372	 9.28572262040646E-02 
1373	 0.980551535842431 
1374	 1.04124529635236 
1375	 0.110143816203488 
1376	 7.02746499308949E-02 
1377	 9.93167005971442E-02 
1378	 0.136214728302622 
1379	 0.38009495589712 
1380	 0.626498544181132 
1381	 1.23073490083027 
1382	 0.966976246187028 
1383	 7.89877225845959E-02 
1384	 1.05709075403992E-02 
1385	 0.100151375851479 
1386	-3.43488396866635E-02 
1387	 0.263364164867277 
1388	 0.528573314744085 
1389	 0.205618340980778 
1390	 1.11420704386074E-02 
1391	-5.96603237300614E-02 
1392	 0.229096390427613 
1393	 0.340863238699306 
1394	 0.197819423670737 
1395	-0.191687560663733 
1396	-0.287415551913322 
1397	-8.99745598098156E-03 
1398	 0.10271299455406 
1399	-2.20263500621598E-02 
1400	 2.72374849366281E-02 
1401	 0.19016498266145 
1402	 0.166209775821642 
1403	 0.203475081045698 
1404	 0.514159867165357 
1405	 0.552443136807416 
1406	 0.177942976951036 
1407	 0.100782475558739 
1408	 0.181238214208572 
1409	 0.209093922242651 
1410	 0.211718073445303 
1411	 0.134391959325459 
1412	 0.042917256460136 
1413	 5.71322967465715E-02 
1414	 5.88670905101539E-02 
1415	 2.72706959518196E-02 
1416	 3.84060772214013E-02 
1417	 0.059140493995268 
1418	 4.17617883242163E-02 
1419	 0.023653553070256 
1420	 4.76698880597776E-02 
1421	 0.043959666206337 
1422	 3.82173275029531E-03 
1423	-1.88938105197204E-03 
1424	 1.20514828658827E-02 
1425	 0.013706642231527 
1426	 1.02856772079913E-02 
1427	 9.65624268072016E-03 
1428	 1.24344416707422E-02 
1429	 1.24268977119269E-02 
1430	 1.26910797081737E-02 
1431	 1.20731338692486E-02 
1432	 6.61326361682774E-03 
1433	 4.21002109821324E-03 
1434	 1.47063023568461E-03 
1435	 2.49576015526298E-03 
1436	 9.25907783450397E-03 
1437	 1.32813838312151E-02 
1438	 1.67569285878565E-02 
1439	 1.67439164665325E-02 
1440	 7.40015990146277E-03 
1441	-1.64388869767086E-03 
1442	-6.70458864341667E-04 
1443	 1.72784920975767E-03 
1444	 3.91774540412411E-03 
1445	 8.69425860803971E-03 
1446	 7.24120646626359E-03 
1447	 3.41193270559381E-03 
1448	 3.79338084293056E-03 
1449	 3.81178699711832E-03 
1450	 0.003181238811003 
1451	 3.93804764190926E-03 
1452	 4.67072685535776E-03 
1453	 4.49296453981962E-03 
1454	 3.86270355489989E-03 
1455	 3.23795778478392E-03 
1456	 3.00755997946617E-03 
1457	 1.69824792172384E-03 
1458	 1.9297261383375E-03 
1459	 3.91091188332441E-03 
1460	 3.87590076587809E-03 
1461	 2.93856251706654E-03 
1462	 3.0849264018878E-03 
1463	 3.1079856432863E-03 
1464	 3.0052256456476E-03 
1465	 3.47637686503304E-03 
1466	 3.9821414236473E-03 
1467	 4.36758201211068E-03 
1468	 3.90533143603966E-03 
1469	 3.27572965287296E-03 
1470	 3.30913057821754E-03 
1471	 3.09811525798082E-03 
1472	 2.13932805466864E-03 
1473	 9.28687316840547E-04 
1474	 1.07178225216891E-03 
1475	 1.05602757060957E-03 
1476	 8.8167688557834E-04 
1477	 1.96711630234012E-03 
1478	 2.75475426942961E-03 
1479	 3.0770906713565E-03 
1480	 2.58588509937378E-03 
1481	 1.55624704203693E-03 
1482	 1.93995958007277E-03 
1483	 2.66016342794207E-03 
1484	 2.47340620616865E-03 
1485	 2.94311554904816E-03 
1486	 3.12519102817666E-03 
1487	 2.07856969110059E-03 
1488	 1.72238601283735E-03 
1489	 2.03465348963623E-03 
1490	 2.17446731243166E-03 
1491	 2.16929684872606E-03 
1492	 2.1612538058069E-03 
1493	 2.54768166082635E-03 
1494	 2.4823501567087E-03 
1495	 1.81944748542036E-03 
1496	 1.6712175140786E-03 
1497	 1.66700423662465E-03 
1498	 1.64164766020521E-03 
1499	 1.8119321962019E-03 
1500	 1.94628622702226E-03 
1501	 2.17256169710341E-03 
1502	 2.09802154584611E-03 
1503	 1.72787692409126E-03 
1504	 1.74495886033782E-03 
1505	 1.81466745821266E-03 
1506	 1.80065606020766E-03 
1507	 2.1367796850946E-03 
1508	 2.15361320375781E-03 
1509	 1.87380327155559E-03 
1510	 1.82671443709405E-03 
1511	 2.10447457455835E-03 
1512	 2.19491477281323E-03 
1513	 1.85795013132403E-03 
1514	 1.90677239845409E-03 
1515	 2.15543979488667E-03 
1516	 2.0262625369724E-03 
1517	 2.05182374771793E-03 
1518	 2.11340874707848E-03 
1519	 1.71619647199652E-03 
1520	 1.5418266775805E-03 
1521	 1.68708569408049E-03 
1522	 1.60985276119331E-03 
1523	 1.59535093292584E-03 
1524	 1.69740504962252E-03 
1525	 1.76208423905852E-03 
1526	 1.84161422794404E-03 
1527	 1.90951822965584E-03 
1528	 1.97024832679532E-03 
1529	 1.95269109083768E-03 
1530	 1.89340742611069E-03 
1531	 1.96213669733579E-03 
1532	 2.08753941809712E-03 
1533	 1.96123659247363E-03 
1534	 1.82865350654689E-03 
1535	 2.05338546495982E-03 
1536	 2.0902067838654E-03 
1537	 1.89725105595916E-03 
1538	 1.93646659356081E-03 
1539	 1.89111430730949E-03 
1540	 1.68686390692924E-03 
1541	 1.66044670837538E-03 
1542	 1.82803593481537E-03 
1543	 1.85698715557352E-03 
1544	 1.72900857138651E-03 
1545	 1.79948614984723E-03 
1546	 2.00646388541395E-03 
1547	 2.19091539391635E-03 
1548	 2.29462109759868E-03 
1549	 2.23286756264865E-03 
1550	 2.15046027444094E-03 
1551	 2.1372976911148E-03 
1552	 1.91224782757985E-03 
1553	 1.61201572634614E-03 
1554	 1.62182923939911E-03 
1555	 1.84771040434624E-03 
1556	 1.94146081558863E-03 
1557	 1.93920772738643E-03 
1558	 2.00859548649621E-03 
1559	 0.001790774978301 
1560	 1.62631523444744E-03 
1561	 1.8285292778945E-03 
1562	 1.88516559335603E-03 
1563	 1.86345701115614E-03 
1564	 1.92970646559442E-03 
1565	 1.78236733521719E-03 
1566	 1.53698429016487E-03 
1567	 1.63906789926392E-03 
1568	 1.82802499074965E-03 
1569	 1.80807993114061E-03 
1570	 1.96767222636639E-03 
1571	 2.36035161743494E-03 
1572	 2.39112322127663E-03 
1573	 2.01050871086123E-03 
1574	 1.97973450830119E-03 
1575	 2.05399593048205E-03 
1576	 1.71683589924901E-03 
1577	 1.78983906482056E-03 
1578	 2.34513241421699E-03 
1579	 2.55409613003923E-03 
1580	 2.36576218559706E-03 
1581	 2.22348800008326E-03 
1582	 2.21962646521197E-03 
1583	 2.1060603399842E-03 
1584	 2.01800124673924E-03 
1585	 1.91765487851721E-03 
1586	 1.72597897792456E-03 
1587	 1.70293979497175E-03 
1588	 1.67508282212997E-03 
1589	 1.83264910242283E-03 
1590	 2.08643663979233E-03 
1591	 1.92788926774858E-03 
1592	 1.95089522128024E-03 
1593	 2.15847195324707E-03 
1594	 1.97213272678803E-03 
1595	 1.7711064939709E-03 
1596	 1.8091629438477E-03 
1597	 1.79636843379283E-03 
1598	 1.7530487815674E-03 
1599	 2.02524182514662E-03 
1600	 2.32782853842058E-03 
1601	 2.1006963448474E-03 
1602	 1.76281454956009E-03 
1603	 1.89411757546877E-03 
1604	 2.07674103574991E-03 
1605	 2.04138901675611E-03 
1606	 2.22890033346073E-03 
1607	 2.38337500949934E-03 
1608	 2.0859018538729E-03 
1609	 1.95000829863637E-03 
1610	 2.17665107544054E-03 
1611	 2.24189137984674E-03 
1612	 2.12311615423339E-03 
1613	 2.07755283556295E-03 
1614	 2.15570064069215E-03 
1615	 2.10957182809914E-03 
1616	 1.87563983900843E-03 
1617	 1.80338111236188E-03 
1618	 1.88659267098044E-03 
1619	 1.96515054636705E-03 
1620	 2.00013499791619E-03 
1621	 1.90295064928395E-03 
1622	 2.10640688477219E-03 
1623	 2.49863486879659E-03 
1624	 2.35473456734623E-03 
1625	 1.94741869761264E-03 
1626	 1.69146961204379E-03 
1627	 1.61735409060801E-03 
1628	 1.77189864908485E-03 
1629	 2.07071405092379E-03 
1630	 2.45310854540368E-03 
1631	 2.38481184635494E-03 
1632	 1.9072926159029E-03 
1633	 1.91442568099377E-03 
1634	 1.96907397469746E-03 
1635	 1.74236795750663E-03 
1636	 1.72052795850289E-03 
1637	 1.80998851304335E-03 
1638	 1.87721867866589E-03 
1639	 1.72912630036456E-03 
1640	 1.49662153281705E-03 
1641	 1.65596639709667E-03 
1642	 2.03873218916082E-03 
1643	 2.09720677354365E-03 
1644	 2.02032111985146E-03 
1645	 2.23284119865983E-03 
1646	 2.14056061055068E-03 
1647	 1.94440779420251E-03 
1648	 2.41807195997558E-03 
1649	 2.70539728234687E-03 
1650	 2.23243845123248E-03 
1651	 1.85032347691847E-03 
1652	 1.97444807477355E-03 
1653	 2.18093313697243E-03 
1654	 2.07132288144682E-03 
1655	 1.91887723191564E-03 
1656	 2.04905348844081E-03 
1657	 2.05691200439305E-03 
1658	 2.01210684340564E-03 
1659	 2.46534677103442E-03 
1660	 2.52772550586036E-03 
1661	 1.96740093773579E-03 
1662	 1.92573838202726E-03 
1663	 2.12729609170106E-03 
1664	 2.14959225014562E-03 
1665	 2.26949841900097E-03 
1666	 2.3585432091056E-03 
1667	 2.41573030938771E-03 
1668	 2.40903958971966E-03 
1669	 2.35295213874107E-03 
1670	 2.3065292258429E-03 
1671	 2.07800827456667E-03 
1672	 1.73873004266901E-03 
1673	 1.9999925018841E-03 
1674	 2.33466169932043E-03 
1675	 2.10046663034746E-03 
1676	 2.1438725178961E-03 
1677	 2.19553011894581E-03 
1678	 1.77427716118786E-03 
1679	 1.63520546706386E-03 
1680	 1.78142970428883E-03 
1681	 1.79985672990889E-03 
1682	 1.76051336159894E-03 
1683	 1.8758784957231E-03 
1684	 2.32107865190132E-03 
1685	 2.64324791196519E-03 
1686	 2.58781814188419E-03 
1687	 2.43282336838109E-03 
1688	 2.21213730613375E-03 
1689	 2.07814954387705E-03 
1690	 2.33936437287669E-03 
1691	 2.57201252475246E-03 
1692	 2.29054392530449E-03 
1693	 1.9545248231684E-03 
1694	 1.68411901113208E-03 
1695	 1.66368088939984E-03 
1696	 1.90004189728007E-03 
1697	 1.94518162376958E-03 
1698	 2.11069012837442E-03 
1699	 2.25730825014996E-03 
1700	 2.12354045114353E-03 
1701	 2.1429144314858E-03 
1702	 2.15921790968789E-03 
1703	 2.08717061535341E-03 
1704	 2.27422064895999E-03 
1705	 2.13227130602918E-03 
1706	 1.81790391029929E-03 
1707	 1.93743406250297E-03 
1708	 2.02787674361389E-03 
1709	 2.10920116727149E-03 
1710	 2.13962732284112E-03 
1711	 1.94365437884286E-03 
1712	 2.04421631091244E-03 
1713	 2.94069904480406E-03 
1714	 2.95169275108772E-03 
1715	 2.19556802078824E-03 
1716	 2.39562698228716E-03 
1717	 2.21991828833041E-03 
1718	 1.86848126069824E-03 
1719	 2.01503115817781E-03 
1720	 1.87512741089727E-03 
1721	 1.84593041044122E-03 
1722	 2.33676306557576E-03 
1723	 2.47585947367016E-03 
1724	 1.87916228227723E-03 
1725	 1.34020508867309E-03 
1726	 1.87681433282749E-03 
1727	 2.63536421007197E-03 
1728	 2.72150820332268E-03 
1729	 2.90515769596542E-03 
1730	 2.91471210097534E-03 
1731	 2.25620944093156E-03 
1732	 2.31724670322525E-03 
1733	 2.72098010626926E-03 
1734	 1.88231107735203E-03 
1735	 1.15695407159826E-03 
1736	 1.55248155876871E-03 
1737	 1.62571019337769E-03 
1738	 1.30123267810573E-03 
1739	 1.97888164337957E-03 
1740	 2.50314902669799E-03 
1741	 1.77249407044584E-03 
1742	 2.09040157562258E-03 
1743	 2.70711676316491E-03 
1744	 1.84797398770065E-03 
1745	 2.02413853976527E-03 
1746	 2.69160819815987E-03 
1747	 2.48062673990169E-03 
1748	 2.00978362249753E-03 
1749	 2.09087435343548E-03 
1750	 2.02297491839883E-03 
1751	 2.02123838436457E-03 
1752	 2.55832745575637E-03 
1753	 2.74537689067994E-03 
1754	 2.49271641308651E-03 
1755	 2.3795299482316E-03 
1756	 2.45333215458707E-03 
1757	 2.44243418838859E-03 
1758	 2.48008549474826E-03 
1759	 2.79349029742949E-03 
1760	 3.2391126407196E-03 
1761	 3.14863948991613E-03 
1762	 2.65206441841243E-03 
1763	 2.23144673263908E-03 
1764	 2.13448111101737E-03 
1765	 2.77583530770946E-03 
1766	 2.92100612863504E-03 
1767	 2.27601721341037E-03 
1768	 2.1722630269963E-03 
1769	 2.00616325046535E-03 
1770	 2.21340188855599E-03 
1771	 3.61521711853682E-03 
1772	 3.68965769717643E-03 
1773	 2.74760500895672E-03 
1774	 3.32283764843432E-03 
1775	 4.06721033449603E-03 
1776	 3.6344128157808E-03 
1777	 1.76241246990028E-03 
1778	 1.35122347677908E-03 
1779	 9.62476191737072E-04 
1780	 9.85420997336705E-04 
1781	 3.52389550105242E-03 
1782	 3.96705376079636E-03 
1783	 2.48398786637293E-03 
1784	 2.34606279325127E-03 
1785	 2.11727114051185E-03 
1786	 2.15445027667345E-03 
1787	 2.67170661244846E-03 
1788	 2.81599162945467E-03 
1789	 3.12959206970684E-03 
1790	 3.10807643004916E-03 
1791	 4.47321756424329E-03 
1792	 5.41859107258359E-03 
1793	 3.89925777582136E-03 
1794	 3.18626444788674E-03 
1795	 6.08322167748565E-04 
1796	 1.76369180154005E-03 
1797	 7.16612164882915E-03 
1798	 8.20376598513162E-03 
1799	 1.02611669565944E-02 
1800	-1.12092178739128E-03 
1801	-3.4136826997581E-03 
1802	 8.59587045288025E-03 
1803	 1.30063376194138E-02 
1804	 0.026562906077884 
1805	 3.22499407401497E-02 
1806	 6.77755962246484E-03 
1807	 2.83423210357056E-03 
1808	 1.81968240126358E-02 
1809	 0.013488014265918 
1810	 1.14323709750174E-02 
1811	 9.87169464842149E-03 
1812	-0.03098687547865 
1813	-3.29593632731893E-02 
1814	 4.12800921775538E-02 
1815	 5.46688064266351E-02 
1816	 3.15091951491482E-02 
1817	 3.87953591224289E-02 
1818	-1.64943455245038E-02 
1819	-0.258058877215328 
1820	-0.388428879513269 
1821	-4.66292145464264E-02 
1822	 3.58895876177749E-02 
1823	 0.339452793086394 
1824	 0.579350833577292 
1825	 0.308847336508142 
1826	 0.371491589078062 
1827	 0.734749568887808 
1828	 0.87014925685363 
1829	 1.02253867991974 
1830	 1.03455239633939 
1831	-2.22959098226698 
1832	 0.80901672331476 
1833	-0.538792949597032 
1834	-0.584638542050202 
1835	-0.902898982160588 
1836	-1.08345393996711 
1837	-0.592331613170746 
1838	-1.02375749954191 
1839	 3.33555194610751 
1840	 2.18425425212754 
1841	 2.06578462082849 
1842	 1.19144321565163 
1843	 0.72259564068895 
1844	-0.247767355342367 
1845	-0.418809499457273 
1846	 0.699025546536744 
1847	 0.537496684038595 
1848	 0.258478920465371 
1849	 0.233210006679001 
1850	 0.20035121950648 
1851	-7.85231057273835E-02 
1852	 3.99514138126511E-02 
1853	-6.67131239038996 
1854	-1.05889216018504 
1855	 0.143258436456191 
1856	 0.241192402063024 
1857	 0.878268431893138 
1858	 0.953655672553675 
1859	 3.62930755539842 
1860	 17.6242291086054 
1861	-0.849525145119419 
1862	-0.728697589940229 
1863	-1.66463201626116 
1864	-45.5892675756662 
1865	-2.47737508331984 
1866	-0.447645654970425 
1867	-0.551146128046258 
1868	-0.137356410510904 
1869	-0.065756910825196 
1870	-0.182682276471835 
1871	-1.42947875775533 
1872	-1.34929704803063 
1873	-0.684549507040978 
1874	-0.537911119501685 
1875	-0.764469918996289 
1876	-0.904254698815836 
1877	-0.607758323719391 
1878	-0.493118200045608 
1879	-0.775233130100942 
1880	-0.712688948144068 
1881	-0.365532142623237 
1882	-0.174138659333748 
1883	-0.450874147363376 
1884	-0.119648676060034 
1885	-4.1334593218596 
1886	 16.4157319847006 
1887	-2.77746722103539 
1888	-1.00188194480183 
1889	-0.955809034669815 
1890	-0.320991252643851 
1891	-0.54601938925158 
1892	-1.13742480637061 
1893	 15.9540849713979 
1894	 9.29036892487451 
1895	 8.9438976720999 
1896	 1.10610440945272 
1897	 0.282181772189336 
1898	-3.23781393382547E-02 
1899	-0.165851131793896 
1900	-0.346029693297088 
1901	-0.694897858788965 
1902	-0.842655248655731 
1903	-1.09786519963725 
1904	-25.487364618064 
1905	-0.199821351918026 
1906	-0.608731749715132 
1907	 0.432957240914513 
1908	 1.73029406257985 
1909	-1.4307470766242 
1910	-21.9040340719228 
1911	 0.889322971543475 
1912	 9.52124938258446E-03 
1913	-1.42199155016826 
1914	 1.12687422849532 
1915	-0.864644276868818 
1916	 0.496055517127581 
1917	 1.71397918177766 
1918	 5.93681661275912 
1919	 8.68346258175218 
1920	 4.01998867936706 
1921	-1.39238479729035 
1922	-1.54875788348548 
1923	 40.705357041817 
1924	-1.43407730886743 
1925	 0.488164841540926 
1926	 0.64990173420637 
1927	 0.274405561796481 
1928	 8.74464287131117E-02 
1929	 0.234473140645804 
1930	 2.57427820221973E-02 
1931	 0.007170130170958 
1932	 0.181240433705555 
1933	 0.100477293148269 
1934	 0.183020866400725 
1935	 0.136924116639607 
1936	-1.28313976871049E-02 
1937	 4.21191310507087E-02 
1938	 0.08660182063904 
1939	 9.25257284860044E-02 
1940	 0.129799777494563 
1941	 0.106412195998453 
1942	 1.61852492412749E-02 
1943	-5.30532832104238E-03 
1944	-8.98471396017886E-03 
1945	-2.06246812978018E-02 
1946	-2.17435947878273E-02 
1947	-3.01608453014401E-02 
1948	-2.73576903040326E-02 
1949	-1.27723089883271E-02 
1950	-1.18875865277805E-02 
1951	-2.50830837494327E-02 
1952	-2.34659744292034E-02 
1953	-2.97915171916868E-02 
1954	-3.07921597957842E-02 
1955	-0.024746915498478 
1956	-7.3794131867353E-03 
1957	 2.03350983718129E-03 
1958	-4.20095435542246E-04 
1959	-5.56231129743006E-03 
1960	-6.08756209753165E-03 
1961	-6.38970272473604E-03 
1962	-6.31394329763305E-03 
1963	 2.38571225669083E-04 
1964	 3.6920071727478E-03 
1965	 1.61713919359109E-03 
1966	 1.46255749146225E-03 
1967	 7.5459217781081E-04 
1968	 3.63580162179581E-04 
1969	 9.86841958100866E-04 
1970	 1.28493221877759E-03 
1971	-5.94671727514551E-04 
1972	-1.30534181997695E-03 
1973	-1.66784071181043E-03 
1974	-6.21547775213324E-04 
1975	 2.40073115398526E-03 
1976	 3.09933803929254E-03 
1977	 2.74516553361598E-03 
1978	 2.37014869145345E-03 
1979	 1.97808401253257E-03 
1980	 7.18901532990335E-04 
1981	 7.36534656030459E-04 
1982	 1.10110013712075E-03 
1983	 1.50242307760608E-03 
1984	 1.93766306996659E-03 
1985	 2.18858084604511E-03 
1986	 3.52370914648588E-03 
1987	 3.33722596868578E-03 
1988	 1.80717373812347E-03 
1989	 1.39973915635001E-03 
1990	 6.8795083855643E-04 
1991	 8.33745528230181E-04 
1992	 1.04215907085907E-03 
1993	 2.34969733452563E-04 
1994	 1.55122886926689E-04 
1995	-2.55311319002573E-04 
1996	-1.17748808163106E-03 
1997	-2.9426770439114E-04 
1998	 1.6034003172688E-03 
1999	 0.001240479901287 
2000	 1.21791348241277E-03 
2001	 1.05750481346241E-03 
2002	 8.51983458012737E-05 
2003	-1.46475553855135E-03 
2004	-2.56203104048928E-03 
2005	-1.40993287943784E-03 
2006	 6.45503727841837E-04 
2007	 3.66825279045518E-03 
2008	 3.78145195006387E-03 
2009	 3.57438152736455E-03 
2010	 8.88832443746955E-04 
2011	-5.70865487443942E-04 
2012	-2.71075325639117E-03 
2013	-2.38059188488954E-03 
2014	-1.81416995437616E-03 
2015	-1.16641995121901E-03 
2016	 6.18796005829475E-04 
2017	 2.04192071941778E-03 
2018	 1.56580887524215E-03 
2019	 9.16602160954501E-04 
2020	-6.7138463559066E-05 
2021	-1.54964271653416E-03 
2022	 3.25015173522227E-04 
2023	 2.10455106482251E-03 
2024	 2.19686969765213E-03 
2025	 1.8144406907894E-03 
2026	 1.99657322111219E-03 
2027	 1.47443255069016E-03 
2028	 1.21008853433022E-03 
2029	 9.27243989383391E-04 
2030	 1.17748777419365E-03 
2031	 1.04677190184444E-03 
2032	 2.03704200714343E-04 
2033	 9.53547280997417E-04 
2034	 2.22659357873776E-03 
2035	 2.10006259352497E-03 
2036	 1.41059688798788E-03 
2037	 0.001277066129077 
2038	 8.89516400335421E-04 
2039	 8.51492815062107E-04 
2040	 1.99245553877397E-03 
2041	 2.31364042136445E-03 
2042	 2.19215674184791E-03 
2043	 1.90979711336635E-03 
2044	 1.2284085474071E-03 
2045	 5.80535479737202E-04 
2046	 6.9974899008076E-04 
2047	 1.57252120502584E-03 
2048	 2.38596533419041E-03 
2049	 2.09500329825326E-03 
2050	 1.0826604299708E-03 
2051	 1.67181103016144E-04 
2052	-3.43185708067145E-04 
2053	-2.41282372278835E-04 
2054	-7.50438340524674E-04 
2055	-2.1196240337257E-03 
2056	-2.39906295217056E-03 
2057	-2.30538128437179E-03 
2058	-2.20737110379429E-03 
2059	-1.5951597315796E-03 
2060	-7.02301566594915E-04 
2061	 7.93063912592299E-05 
2062	 1.14413584175485E-03 
2063	 2.33786885985772E-03 
2064	 3.56674015046657E-03 
2065	 3.41332627036845E-03 
2066	 2.13197430583232E-03 
2067	 1.81114103387486E-03 
2068	 1.35845755785803E-03 
2069	 9.26628464969768E-04 
2070	 1.29233279574309E-03 
2071	 1.60681796256521E-03 
2072	 2.17368666273417E-03 
2073	 2.07816697422898E-03 
2074	 1.60273026940561E-03 
2075	 1.14975295418912E-03 
2076	 2.36610908707282E-05 
2077	-1.13445099058033E-04 
2078	 3.05822136122905E-04 
2079	 6.54673475996889E-04 
2080	 1.57900495353458E-03 
2081	 1.9794347968889E-03 
2082	 1.19706349973282E-03 
2083	 1.15314883741135E-03 
2084	 1.97906733948356E-03 
2085	 2.24903559381989E-03 
2086	 1.89163225198668E-03 
2087	 2.04817428613702E-03 
2088	 2.17664552326304E-03 
2089	 1.46868310537308E-03 
2090	 1.33332704826354E-03 
2091	 1.54502833941551E-03 
2092	 1.35610396403304E-03 
2093	 1.62811214491788E-04 
2094	-1.94703328982329E-04 
2095	 6.16570648634206E-05 
2096	 2.56855190618276E-04 
2097	 1.8322440186243E-04 
2098	 6.54388578105014E-04 
2099	 2.23136858357054E-03 
2100	 2.25133042032317E-03 
2101	 1.4891272160554E-03 
2102	 1.46982607430067E-03 
2103	 1.03326113374346E-03 
2104	 1.58330562752744E-03 
2105	 2.00538713991883E-03 
2106	 1.82577782489607E-03 
2107	 2.30587856330888E-03 
2108	 2.14119055275675E-03 
2109	 1.38383596349767E-03 
2110	 1.66305094604396E-03 
2111	 1.43153183248869E-03 
2112	 2.27096082498449E-04 
2113	 4.35550038414601E-05 
2114	 1.29995103799308E-03 
2115	 1.70203732315319E-03 
2116	 1.73079050731637E-03 
2117	 1.66619426530466E-03 
2118	 1.48708937307894E-03 
2119	 1.51282475440712E-03 
2120	 1.31350993173798E-03 
2121	 1.6651878666176E-03 
2122	 2.03169681870528E-03 
2123	 0.001091321782745 
2124	 7.14736655703996E-04 
2125	 7.34717176945567E-04 
2126	 4.35922625066907E-05 
2127	 6.66113522743936E-04 
2128	 8.26322844969037E-04 
2129	 4.71873743283921E-04 
2130	 1.8687372936193E-03 
2131	 2.42868846494095E-03 
2132	 2.18190707539468E-03 
2133	 1.3751748668121E-03 
2134	 1.16996867644858E-03 
2135	 1.11122826559693E-03 
2136	 7.24800485213054E-04 
2137	 3.64169108847812E-04 
2138	 5.78176642394117E-04 
2139	 3.11309038785795E-04 
2140	 6.1907127722201E-05 
2141	 9.52036753067725E-04 
2142	 1.09586624974812E-03 
2143	 3.13503886235299E-04 
2144	 2.19004858459172E-04 
2145	 7.22863204575044E-04 
2146	 6.97670082796821E-04 
2147	 1.14627982648409E-03 
2148	 1.48444899157123E-03 
2149	 2.03498207770396E-03 
2150	 2.36585129358424E-03 
2151	 2.16602211246649E-03 
2152	 1.93680691508205E-03 
2153	 1.43565254879927E-03 
2154	 9.30922830540936E-04 
2155	 7.78004029641157E-04 
2156	 1.07857209079213E-03 
2157	 9.81986399153534E-04 
2158	 5.93750654331301E-04 
2159	 4.09563674335422E-04 
2160	 4.01860332958901E-05 
2161	 1.29686744518129E-04 
2162	 8.55546395464238E-04 
2163	 6.85892844076425E-04 
2164	-1.47545715123628E-04 
2165	 1.87894152689732E-04 
2166	 7.97755356868305E-04 
2167	 1.1908298745816E-03 
2168	 3.00163928805663E-03 
2169	 3.45114062088295E-03 
2170	 3.03816086455968E-03 
2171	 1.57708419309024E-03 
2172	 7.01404085173296E-04 
2173	-8.65897950559194E-04 
2174	-2.32454028976169E-03 
2175	-9.78296488316071E-04 
2176	 1.62334322072114E-03 
2177	 2.97264807747684E-03 
2178	 3.07072448937557E-03 
2179	 1.24120778501769E-03 
2180	-5.05719207535885E-04 
2181	-3.29052790701161E-04 
2182	 3.70850364910037E-04 
2183	 2.4933401095435E-03 
2184	 2.6611147095577E-03 
2185	 1.45428728263989E-03 
2186	 1.61668230051397E-03 
2187	 2.20482294384977E-03 
2188	 2.12149248919097E-03 
2189	 2.72278365808313E-03 
2190	 3.17561395960088E-03 
2191	 2.75636637715801E-03 
2192	 2.76314089537018E-03 
2193	 3.78331912512385E-03 
2194	 3.23367917226542E-03 
2195	 1.13877503209548E-03 
2196	 3.90171819442869E-04 
2197	-2.42739588009552E-04 
2198	-7.99780244865243E-04 
2199	-1.09751323001032E-03 
2200	-5.74267773149773E-04 
2201	 2.54368612005834E-04 
2202	 3.94752806533602E-05 
2203	 1.85416179678962E-03 
2204	 4.41643640725618E-03 
2205	 3.69589869730713E-03 
2206	 3.00028760521272E-03 
2207	 1.54247156145125E-03 
2208	-4.01814290693703E-04 
2209	 2.92551038704119E-04 
2210	 3.58465286018907E-04 
2211	 1.01995836414659E-04 
2212	-2.73369326886855E-04 
2213	-1.03960471658937E-03 
2214	-7.18718671648729E-04 
2215	-1.51592259474738E-05 
2216	 1.14263590125039E-03 
2217	 1.03652752802338E-03 
2218	-2.04616807559341E-04 
2219	-3.41001166001363E-04 
2220	-1.35483897793136E-03 
2221	-1.38523040083652E-03 
2222	 4.98464429168511E-04 
2223	 1.06677042471162E-03 
2224	 1.31493951298298E-03 
2225	 2.15393616028423E-03 
2226	 2.38213213966256E-03 
2227	 2.47743484534846E-03 
2228	 3.47491761721452E-03 
2229	 3.64924206088952E-03 
2230	 3.29927038660227E-03 
2231	 3.05321674032511E-03 
2232	 2.64788247310175E-03 
2233	 1.67085190670164E-03 
2234	-5.90360486714092E-05 
2235	-2.1257928447825E-03 
2236	-9.4728144899304E-04 
2237	-1.09748834652961E-03 
2238	-1.46870263422292E-03 
2239	 1.19260633347708E-03 
2240	 2.59436010790012E-03 
2241	 2.58178842190036E-03 
2242	 2.47080599369904E-03 
2243	 1.49443219856641E-03 
2244	-8.25144812187935E-04 
2245	-2.23623596693335E-03 
2246	-2.04326982291049E-03 
2247	-2.16218151233116E-03 
2248	-2.66016672775646E-03 
2249	-1.51595838159293E-03 
2250	-6.22654058574337E-04 
2251	 7.94948381399702E-05 
2252	 2.39400003767992E-03 
2253	 3.18751165846158E-03 
2254	 2.2261208431837E-03 
2255	 2.50017348993827E-03 
2256	 1.24596597009581E-03 
2257	-1.52128019487817E-03 
2258	-2.38622227822865E-03 
2259	-2.77904172747178E-03 
2260	-2.2446949201682E-03 
2261	 2.64627909488227E-04 
2262	 1.26771921145442E-03 
2263	 3.00334226321972E-03 
2264	 2.88738234281536E-03 
2265	 7.50659190329163E-04 
2266	-4.83052176646331E-05 
2267	-1.84352221008522E-03 
2268	-2.71475850537369E-03 
2269	-2.4656300891042E-03 
2270	-2.26781267910576E-03 
2271	-9.32134591794082E-04 
2272	-9.10409051930468E-04 
2273	-3.45884062559936E-03 
2274	-1.78575149512912E-03 
2275	 3.52509697303125E-03 
2276	 3.99873021737523E-03 
2277	 4.6589513171162E-03 
2278	 6.05415813048698E-03 
2279	 3.24651489420359E-03 
2280	 2.18990547365537E-03 
2281	 3.24723360071456E-03 
2282	 6.29661753720803E-03 
2283	 6.49381087285513E-03 
2284	 4.90356738180978E-03 
2285	 6.55416690257342E-03 
2286	 4.11809409346381E-03 
2287	-1.3143347426939E-04 
2288	 1.13890432823486E-03 
2289	 2.90038925367488E-03 
2290	 3.52300741709498E-03 
2291	 4.74460065461472E-03 
2292	 3.95079361043971E-03 
2293	 7.14531912694928E-04 
2294	-1.70270990161948E-03 
2295	-5.02764860560941E-03 
2296	-9.00824584319299E-03 
2297	-7.72712158908683E-03 
2298	-3.75686451757302E-03 
2299	-1.75382588069916E-03 
2300	-4.13394478196506E-04 
2301	-1.73776254654078E-03 
2302	-4.68489589960238E-03 
2303	-6.95046938952242E-03 
2304	-7.79537870853562E-03 
2305	-6.66219489348301E-03 
2306	-3.02159700504336E-03 
2307	 2.96083438297082E-03 
2308	 4.29589644639757E-03 
2309	 2.94160570126708E-03 
2310	-5.3412498036854E-04 
2311	-4.46021072672839E-03 
2312	-1.91539816600719E-03 
2313	-2.13177373095231E-04 
2314	 1.27571455735752E-03 
2315	 4.09890254144622E-03 
2316	 5.08362888689282E-03 
2317	 9.51116982302325E-03 
2318	 9.71072516178354E-03 
2319	 3.86676212965474E-03 
2320	 6.00348590237129E-04 
2321	-2.90014776310423E-03 
2322	-4.45149962998498E-03 
2323	-3.20109943274989E-03 
2324	-3.19699140753899E-03 
2325	-8.75848624264253E-03 
2326	-1.38555642157604E-02 
2327	-1.34624873162641E-02 
2328	-1.19436010070124E-02 
2329	-7.23766126262209E-03 
2330	-2.45917773090209E-03 
2331	 3.33455580892303E-03 
2332	 5.51412860827666E-03 
2333	 3.22618017300251E-03 
2334	 2.56176982641447E-03 
2335	-2.27761275757202E-03 
2336	-2.90799602041599E-03 
2337	-8.09558419540075E-04 
2338	 9.21267976167296E-04 
2339	 5.21029310968723E-03 
2340	 2.61195703540075E-03 
2341	 1.60214822574537E-03 
2342	-6.73668445848681E-04 
2343	-3.81570408713552E-03 
2344	-2.16467115662657E-03 
2345	-3.47447433595836E-03 
2346	-4.52972960978779E-03 
2347	-1.25817569199798E-02 
2348	-1.77032317131629E-02 
2349	-1.98307053345505E-02 
2350	-2.33646355575919E-02 
2351	-7.91881688167256E-03 
2352	 2.32462009975922E-03 
2353	-6.10709332769662E-03 
2354	-1.12191547271351E-02 
2355	-2.04842869094543E-02 
2356	-3.06580045518749E-02 
2357	-2.16596900597944E-02 
2358	-1.60469697391544E-02 
2359	-1.57115639001303E-02 
2360	-4.48549960483114E-03 
2361	-7.68952571472928E-03 
2362	-8.69408529186365E-03 
2363	-4.73532614923308E-03 
2364	-1.01382022393229E-02 
2365	-9.06063491477956E-03 
2366	-2.01856457685275E-02 
2367	-2.53016064925863E-02 
2368	-1.31043885328918E-02 
2369	-1.36657956044642E-02 
2370	-2.25037155009488E-02 
2371	-0.031240761570681 
2372	-4.38009246094635E-02 
2373	-5.32913964875942E-02 
2374	-3.62904968495408E-02 
2375	-1.04280424536556E-02 
2376	 7.19932899974089E-03 
2377	 0.019302734024532 
2378	 1.89173174464823E-02 
2379	 1.43494484172496E-02 
2380	 4.24803486212812E-03 
2381	-3.87299193090433E-03 
2382	-9.72059771626253E-03 
2383	-1.12524487532487E-02 
2384	-1.18354306628069E-02 
2385	-3.43453834013674E-02 
2386	-4.26543044738182E-02 
2387	-4.25964296207337E-02 
2388	-6.29523999454008E-02 
2389	-7.49353216576597E-02 
2390	-7.28047258604834E-02 
2391	-5.68774532676437E-02 
2392	-3.93306022667997E-02 
2393	-1.98740280685824E-02 
2394	-1.44992269327972E-02 
2395	-2.61609780948406E-02 
2396	-1.91184750989756E-02 
2397	-1.92384184735271E-02 
2398	-2.82830059253154E-02 
2399	-0.02984424418955 
2400	-0.040366409449253 
2401	-4.24377540280149E-02 
2402	-1.95183886963689E-02 
2403	 4.48294211270973E-03 
2404	 6.84688388846754E-04 
2405	-4.45588161784692E-03 
2406	-1.56600727435127E-02 
2407	-5.23937687245012E-02 
2408	-5.27515601988481E-02 
2409	-5.21736552965974E-02 
2410	-8.06766559167808E-02 
2411	-8.63469282059192E-02 
2412	-0.105609664560339 
2413	-0.135894400022946 
2414	-0.138198596703708 
2415	-0.152176135393282 
2416	-0.192478452604529 
2417	-0.146182610858886 
2418	-4.27417918343708E-02 
2419	 3.90302968532679E-02 
2420	 0.121780508773205 
2421	 7.90763355931836E-02 
2422	 0.010400814394037 
2423	-2.18418822346564E-03 
2424	-6.80712900235685E-02 
2425	-3.24829138426804E-02 
2426	 6.80382529360785E-03 
2427	-3.22438779978997E-02 
2428	-1.05010263959472E-02 
2429	-3.20256250765183E-02 
2430	-0.117314177389655 
2431	-0.154678605589107 
2432	-9.68486383458345E-02 
2433	 2.51206367217513E-02 
2434	 7.19123881430862E-02 
2435	 6.66133245374025E-02 
2436	 6.56219754813644E-02 
2437	 0.041429837406032 
2438	 5.59985670905279E-02 
2439	 4.00203611991811E-02 
2440	-4.14760477707044E-02 
2441	-0.136176369288944 
2442	-0.202070959708703 
2443	-9.92487709517133E-02 
2444	 4.91784879459309E-02 
2445	-3.38453457967852E-02 
2446	-0.335667424958618 
2447	-0.294864507265256 
2448	-0.32892936583428 
2449	 8.89231476411915E-02 
2450	 0.257487589409418 
2451	-0.548479313300599 
2452	-0.467364087888718 
2453	-0.280566497714295 
2454	 0.131327353549259 
2455	 0.40352315580646 
2456	 0.193787850128663 
2457	 0.187679045713869 
2458	 0.189169155925453 
2459	-0.101271166635601 
2460	-1.18478434444889E-02 
2461	-8.59262507502174E-02 
2462	-0.234856344327007 
2463	-0.114382085467089 
2464	-0.1851117610715 
2465	-0.136465049133466 
2466	 6.00272270776342E-02 
2467	-0.22398081284758 
2468	-0.390809023449239 
2469	-2.21789589085803 
2470	-0.535339938680377 
2471	-0.447030383327258 
2472	-0.712540923470321 
2473	-0.766744868776988 
2474	-1.8642332983535 
2475	-2.31355598672568 
2476	-1.94244044254937 
2477	-3.95868290178106 
2478	 0.365098893356617 
2479	-4.7527072488629 
2480	-1.21231201046351 
2481	-0.770092824262134 
2482	-0.29601187594358 
2483	 3.93035500317214E-02 
2484	 0.137200794171664 
2485	 0.519098621094536 
2486	 1.06131202568932 
2487	 1.63080598459715 
2488	 1.53830033590535 
2489	 0.891990992545036 
2490	 0.835510890256944 
2491	 1.3296693409546 
2492	 0.768864256867905 
2493	-0.117551828067644 
2494	-0.358052721975475 
2495	-1.22966011641905 
2496	-1.65839983296744 
2497	-0.202475631829331 
2498	 0.289957195408865 
2499	 0.264595583851117 
2500	-8.61129309011119E-02 
