Wavelength	rt0718west_far00006.asd
350	 2.55833953027152E-02 
351	 2.44299253425233E-02 
352	 2.50534196613372E-02 
353	 2.54479285225494E-02 
354	 2.46514758301801E-02 
355	 2.53961220004012E-02 
356	 2.57802385677354E-02 
357	 2.58523010736544E-02 
358	 2.60265150093012E-02 
359	 2.55786878838524E-02 
360	 2.54311655719558E-02 
361	 2.56957644357009E-02 
362	 2.59100935340882E-02 
363	 0.026223366270667 
364	 2.62149824674178E-02 
365	 2.58352339296528E-02 
366	 2.56365250879059E-02 
367	 2.62695003016557E-02 
368	 2.68669986296494E-02 
369	 2.66415159562866E-02 
370	 2.65600409200195E-02 
371	 2.66210420648398E-02 
372	 0.026822610395754 
373	 2.71015742851866E-02 
374	 0.026966552743452 
375	 2.73356242979285E-02 
376	 2.80804583583305E-02 
377	 2.75286595397436E-02 
378	 2.79180303709231E-02 
379	 2.83111856163636E-02 
380	 2.77868003134847E-02 
381	 2.78135592134826E-02 
382	 2.81761989407945E-02 
383	 2.85242303927358E-02 
384	 2.85535316891422E-02 
385	 2.88742362811804E-02 
386	 2.93878900353095E-02 
387	 2.98478334574726E-02 
388	 2.99400995447206E-02 
389	 2.97360866430589E-02 
390	 2.95213286391444E-02 
391	 2.95776305421128E-02 
392	 3.01430853709112E-02 
393	 3.04202210722534E-02 
394	 0.030636560047965 
395	 3.12040811959758E-02 
396	 3.13226599619308E-02 
397	 3.12983483117246E-02 
398	 3.13748951472063E-02 
399	 3.16557926905514E-02 
400	 3.18398943034756E-02 
401	 3.19833210707275E-02 
402	 3.21255273635665E-02 
403	 3.21106788292474E-02 
404	 3.21855749101767E-02 
405	 0.032341400642959 
406	 3.24816195002766E-02 
407	 3.26144129060367E-02 
408	 3.27809183699489E-02 
409	 3.29560002272573E-02 
410	 3.30603439633051E-02 
411	 3.33428677761951E-02 
412	 0.033634714474241 
413	 3.37959716542501E-02 
414	 3.39279882963177E-02 
415	 3.40734919209594E-02 
416	 3.42541994587896E-02 
417	 3.44768056478382E-02 
418	 3.47471935773517E-02 
419	 3.49908741085279E-02 
420	 3.52487643046557E-02 
421	 3.56743949401684E-02 
422	 3.56890286729314E-02 
423	 3.57857333040615E-02 
424	 3.62973936022461E-02 
425	 3.64832096571829E-02 
426	 3.67250680516351E-02 
427	 3.70409671829211E-02 
428	 3.73098838568072E-02 
429	 0.037744274956737 
430	 3.80307988849552E-02 
431	 3.82330720110599E-02 
432	 3.88919567949431E-02 
433	 3.92662433603795E-02 
434	 3.95043686210205E-02 
435	 3.98419528838735E-02 
436	 4.01403559639669E-02 
437	 4.04916507736703E-02 
438	 4.08663526163783E-02 
439	 4.11876601579745E-02 
440	 4.16069805357455E-02 
441	 4.20086937270499E-02 
442	 4.23573253266948E-02 
443	 0.042779614829552 
444	 4.30851321429036E-02 
445	 4.34114952050086E-02 
446	 0.04388110526405 
447	 4.42192022595693E-02 
448	 4.44254341819128E-02 
449	 4.46131510455417E-02 
450	 4.49505056660215E-02 
451	 0.045208872752881 
452	 4.54142947901958E-02 
453	 4.56409810807457E-02 
454	 4.59986489780631E-02 
455	 4.61802696561489E-02 
456	 4.62766180194678E-02 
457	 4.64852576897213E-02 
458	 4.67117228444166E-02 
459	 4.69012729168157E-02 
460	 0.047032197111738 
461	 4.71194813448087E-02 
462	 4.72643994171154E-02 
463	 4.75038991462209E-02 
464	 4.77732658697825E-02 
465	 4.77457823146178E-02 
466	 4.79796798600175E-02 
467	 4.83181435085115E-02 
468	 0.048343666198436 
469	 4.85765821443715E-02 
470	 4.88359159705518E-02 
471	 0.049030186834014 
472	 4.92708815269117E-02 
473	 4.94770131267048E-02 
474	 4.97155386521912E-02 
475	 0.050029392665789 
476	 5.02462105628566E-02 
477	 5.04103562893932E-02 
478	 5.06399013928842E-02 
479	 5.10585374851315E-02 
480	 5.12754889282857E-02 
481	 5.14767065002873E-02 
482	 0.051790745705622 
483	 5.20679654727473E-02 
484	 5.23575468037325E-02 
485	 0.052611599758887 
486	 5.28323070080873E-02 
487	 5.34553029801796E-02 
488	 0.053954389150403 
489	 5.41891554955566E-02 
490	 5.44449736828704E-02 
491	 5.48486644739565E-02 
492	 5.53044451575056E-02 
493	 5.57217551875772E-02 
494	 5.61738410314201E-02 
495	 5.66422104197675E-02 
496	 5.71104345557772E-02 
497	 5.75671695649622E-02 
498	 5.80331607958528E-02 
499	 5.85030132256548E-02 
500	 5.90017419533579E-02 
501	 5.96074386636407E-02 
502	 6.01378166875872E-02 
503	 6.06672017844564E-02 
504	 0.061264103827125 
505	 0.061629874252866 
506	 6.21243354799547E-02 
507	 6.27556405370913E-02 
508	 6.32558488933276E-02 
509	 6.38135779092889E-02 
510	 6.43752184563891E-02 
511	 6.49088423340756E-02 
512	 6.55332962582809E-02 
513	 6.61297121445796E-02 
514	 6.66959079707798E-02 
515	 0.067291199735513 
516	 6.80428073294772E-02 
517	 6.87789124563983E-02 
518	 6.94587421749796E-02 
519	 7.02361173691143E-02 
520	 7.09609107228918E-02 
521	 7.16617090048725E-02 
522	 7.23878133543131E-02 
523	 7.30952095993583E-02 
524	 7.37784884408767E-02 
525	 7.44900698417817E-02 
526	 7.53089527462331E-02 
527	 7.60578966353685E-02 
528	 7.68828578345443E-02 
529	 7.77985325251775E-02 
530	 7.84601870474926E-02 
531	 7.92467418095496E-02 
532	 8.00959603963444E-02 
533	 0.080840907802584 
534	 8.17534626993668E-02 
535	 8.26536237478776E-02 
536	 8.34578128657398E-02 
537	 8.42181320992466E-02 
538	 8.51095116116433E-02 
539	 8.60107331390483E-02 
540	 8.68182875356959E-02 
541	 8.77538827013222E-02 
542	 8.86223048332815E-02 
543	 8.94381436952523E-02 
544	 9.03377236092925E-02 
545	 9.12201083589772E-02 
546	 9.20496423865481E-02 
547	 9.28448961016735E-02 
548	 9.37176868860384E-02 
549	 9.45245834004347E-02 
550	 9.53140810198264E-02 
551	 0.096180848909157 
552	 9.70577331476016E-02 
553	 0.097895345621406 
554	 9.86972487383807E-02 
555	 9.95195953563083E-02 
556	 0.100374607924619 
557	 0.101233625969181 
558	 0.102060872952892 
559	 0.102878475375364 
560	 0.103614150377224 
561	 0.104277477802884 
562	 0.104938877793323 
563	 0.105669351561482 
564	 0.106340189876308 
565	 0.106897994869497 
566	 0.107487396274253 
567	 0.108052774338103 
568	 0.108580798361602 
569	 0.109080826653958 
570	 0.109623525004465 
571	 0.110132069026756 
572	 0.110568603031555 
573	 0.110946906910625 
574	 0.111259436637483 
575	 0.111503422551157 
576	 0.11169973303665 
577	 0.111955810385552 
578	 0.112102380837165 
579	 0.112144607920655 
580	 0.112187288044081 
581	 0.112139995772383 
582	 0.112028480102381 
583	 0.111885987372402 
584	 0.111738224255689 
585	 0.111539380997194 
586	 0.11124161111234 
587	 0.110820987836671 
588	 0.110401728562334 
589	 0.110028638689811 
590	 0.109697637327762 
591	 0.109333808551738 
592	 0.108862548810893 
593	 0.108233213366195 
594	 0.107466263764513 
595	 0.106739861332908 
596	 0.105828121935775 
597	 0.104715881288511 
598	 0.10353695740126 
599	 0.102475059295115 
600	 0.10157969560656 
601	 0.100842224318933 
602	 0.10018154530431 
603	 9.98099486432644E-02 
604	 9.95939604552423E-02 
605	 9.93473476903023E-02 
606	 9.92331044949783E-02 
607	 9.91706243204098E-02 
608	 9.91559503560103E-02 
609	 9.92649492909476E-02 
610	 9.92693249665434E-02 
611	 9.92189195657056E-02 
612	 9.91918772629926E-02 
613	 9.91529847093901E-02 
614	 0.09914734795771 
615	 9.91507526288746E-02 
616	 0.099102852749302 
617	 9.90090087316609E-02 
618	 0.098901689842443 
619	 0.098831571976121 
620	 9.88837224188052E-02 
621	 9.88624077790574E-02 
622	 9.87699617615539E-02 
623	 9.86830136221736E-02 
624	 9.86804821976157E-02 
625	 9.86519010977052E-02 
626	 9.85585476247684E-02 
627	 9.84423076404829E-02 
628	 9.84039332399915E-02 
629	 9.83619212073228E-02 
630	 9.82610964388523E-02 
631	 9.82204602549525E-02 
632	 9.81418468196955E-02 
633	 9.80642895778771E-02 
634	 9.80641575659805E-02 
635	 9.79697808641737E-02 
636	 0.097881031095052 
637	 9.78326120560299E-02 
638	 9.77283968388878E-02 
639	 0.097620331656571 
640	 9.75335410737352E-02 
641	 9.74613806179166E-02 
642	 9.72884014876363E-02 
643	 9.71826887419411E-02 
644	 9.71277424165757E-02 
645	 9.69618278069447E-02 
646	 9.67920222897367E-02 
647	 0.096614904406717 
648	 9.64176424974848E-02 
649	 9.62117601863957E-02 
650	 9.59217726006147E-02 
651	 9.55809110378102E-02 
652	 9.52374208217418E-02 
653	 9.46776412660636E-02 
654	 9.40096523991108E-02 
655	 0.093279464003781 
656	 9.25181770749638E-02 
657	 0.091870568562363 
658	 9.12373677812063E-02 
659	 9.05439856166793E-02 
660	 9.00093880746289E-02 
661	 8.96220366191471E-02 
662	 8.92789077630134E-02 
663	 0.088847746081582 
664	 8.85024844815558E-02 
665	 8.82017236727973E-02 
666	 8.79096325686764E-02 
667	 8.76558682044782E-02 
668	 8.74693003214777E-02 
669	 8.72904038465421E-02 
670	 8.70699633753576E-02 
671	 8.69566320654653E-02 
672	 8.69208560566492E-02 
673	 8.68838408577578E-02 
674	 0.086746018489406 
675	 8.67505363270173E-02 
676	 8.68136616560471E-02 
677	 0.086832231031241 
678	 8.68068412075683E-02 
679	 8.68725070065388E-02 
680	 8.70134466915107E-02 
681	 8.71405222092194E-02 
682	 8.72210835466609E-02 
683	 8.73042156998863E-02 
684	 8.73761244563136E-02 
685	 8.73279105094402E-02 
686	 8.74240656411887E-02 
687	 8.75002917555501E-02 
688	 8.73550841470729E-02 
689	 8.71732823783452E-02 
690	 8.69679528484356E-02 
691	 8.66647313124904E-02 
692	 0.086152407419863 
693	 8.56834696478454E-02 
694	 8.50751789576056E-02 
695	 8.43097123296079E-02 
696	 8.36444327441071E-02 
697	 8.29564221532458E-02 
698	 8.20852712222554E-02 
699	 8.09708953611807E-02 
700	 7.98820045901449E-02 
701	 7.88070680463038E-02 
702	 7.76866130134627E-02 
703	 7.64223233812164E-02 
704	 7.52209080094426E-02 
705	 7.39771535550246E-02 
706	 7.26151398689327E-02 
707	 7.11484106947444E-02 
708	 6.96190015988889E-02 
709	 0.067969557095067 
710	 6.61306167048115E-02 
711	 6.42126819998759E-02 
712	 6.22367872103538E-02 
713	 6.01989301970206E-02 
714	 0.058032030931897 
715	 5.60965236463289E-02 
716	 5.40447189294867E-02 
717	 5.16618637812707E-02 
718	 0.049423875566686 
719	 4.71542571609075E-02 
720	 4.51923512450149E-02 
721	 4.35222066172353E-02 
722	 4.18425711403925E-02 
723	 3.98270126383198E-02 
724	 3.77384993031916E-02 
725	 3.60550133231156E-02 
726	 3.40415085894108E-02 
727	 3.18898373572991E-02 
728	 2.98808109768586E-02 
729	 2.77828959585806E-02 
730	 2.57213331937872E-02 
731	 2.39070553411385E-02 
732	 2.24352799396784E-02 
733	 2.11591317939869E-02 
734	 2.01424961573279E-02 
735	 1.93638622248182E-02 
736	 1.86395806249012E-02 
737	 1.81241067039127E-02 
738	 0.017755299418106 
739	 1.74708221625722E-02 
740	 1.73615329780337E-02 
741	 1.72047644288206E-02 
742	 1.70172535105321E-02 
743	 1.69369157073536E-02 
744	 1.69484726941743E-02 
745	 0.016929294024666 
746	 1.68523397117075E-02 
747	 1.68322534635093E-02 
748	 1.68234378604809E-02 
749	 1.67704237153049E-02 
750	 1.66697199125444E-02 
751	 1.66925939634633E-02 
752	 1.67357882023445E-02 
753	 1.67453219162146E-02 
754	 1.66994666648666E-02 
755	 0.016574893248021 
756	 1.65473934648993E-02 
757	 1.66682528876698E-02 
758	 1.68267482962323E-02 
759	 1.67952642491706E-02 
760	 1.68216204878492E-02 
761	 1.71697390579829E-02 
762	 1.69207199517732E-02 
763	 1.68073855221791E-02 
764	 1.68361563481975E-02 
765	 1.68140126878702E-02 
766	 1.69501647625497E-02 
767	 1.70780742894389E-02 
768	 1.71642078793808E-02 
769	 0.017290317378533 
770	 0.017353428803032 
771	 1.74050276467174E-02 
772	 1.74990496099933E-02 
773	 1.75992294194459E-02 
774	 1.78138132363633E-02 
775	 1.80123232487622E-02 
776	 1.80338786261367E-02 
777	 1.81882178648138E-02 
778	 1.84300736392299E-02 
779	 1.86496674227801E-02 
780	 1.87220992941026E-02 
781	 0.018960367352677 
782	 1.92243569455087E-02 
783	 1.94048857634209E-02 
784	 1.96570859475057E-02 
785	 1.99082943270656E-02 
786	 2.01569832442347E-02 
787	 2.04332881997005E-02 
788	 2.08139386151527E-02 
789	 2.11207804223584E-02 
790	 0.021345998065304 
791	 2.16229760633136E-02 
792	 2.18592596124388E-02 
793	 2.20974387921758E-02 
794	 2.23877263697572E-02 
795	 2.27605671394751E-02 
796	 2.30739842580308E-02 
797	 2.33437663431555E-02 
798	 0.023629090467745 
799	 2.39382800838141E-02 
800	 0.024208110966873 
801	 2.43903088708914E-02 
802	 2.44902400417366E-02 
803	 0.024756356168373 
804	 0.024976239155642 
805	 2.50309610343506E-02 
806	 2.49654691272465E-02 
807	 2.50890688930825E-02 
808	 2.51684212365245E-02 
809	 2.50186045868106E-02 
810	 2.48574244939085E-02 
811	 2.47862776859056E-02 
812	 2.46793945700072E-02 
813	 2.43533675970117E-02 
814	 2.40086576456826E-02 
815	 2.37151546778974E-02 
816	 2.34039756171714E-02 
817	 2.29299655133356E-02 
818	 0.022492136813244 
819	 2.20952703321445E-02 
820	 2.16543788618038E-02 
821	 2.10278681122147E-02 
822	 2.03585848440735E-02 
823	 1.94916072943526E-02 
824	 1.84276144118774E-02 
825	 1.75563899824676E-02 
826	 1.66945469307522E-02 
827	 1.57867725775156E-02 
828	 1.48753637303134E-02 
829	 1.39539644396201E-02 
830	 1.32712258561775E-02 
831	 1.27880708388057E-02 
832	 1.22982384662709E-02 
833	 1.21549246486713E-02 
834	 1.18207377357928E-02 
835	 1.13352250424051E-02 
836	 1.15808618755715E-02 
837	 1.13941164820136E-02 
838	 1.10827522598371E-02 
839	 1.10284731265958E-02 
840	 0.01094375252807 
841	 1.08369372525721E-02 
842	 1.07242386498909E-02 
843	 1.06447585240844E-02 
844	 1.07043369626148E-02 
845	 1.05474973579159E-02 
846	 1.03125769598491E-02 
847	 1.04032726147412E-02 
848	 1.02228843719145E-02 
849	 1.00921821781001E-02 
850	 1.00988677921688E-02 
851	 9.91957647958705E-03 
852	 9.77566129183686E-03 
853	 9.77733182334676E-03 
854	 9.89455187507225E-03 
855	 9.85911742595895E-03 
856	 9.99424876580534E-03 
857	 1.00098234563332E-02 
858	 9.68124024215065E-03 
859	 9.62251825133704E-03 
860	 9.49117300210394E-03 
861	 9.32754196346175E-03 
862	 9.3338001226401E-03 
863	 9.40963083978767E-03 
864	 9.56480733262029E-03 
865	 9.59866299663272E-03 
866	 9.21511698444868E-03 
867	 9.07974587293762E-03 
868	 9.02636024776751E-03 
869	 8.96725882617153E-03 
870	 9.06637687399718E-03 
871	 8.92939781017608E-03 
872	 8.99150050429745E-03 
873	 9.32619658090322E-03 
874	 8.78660867619159E-03 
875	 8.68528765323699E-03 
876	 8.93011981057034E-03 
877	 9.05715332216376E-03 
878	 9.04555578714458E-03 
879	 8.74536501874701E-03 
880	 8.44734431830322E-03 
881	 8.50289097123792E-03 
882	 8.35918412739854E-03 
883	 8.21133676698498E-03 
884	 8.14101303842187E-03 
885	 8.13539581125291E-03 
886	 8.43909306476963E-03 
887	 8.4360152569184E-03 
888	 8.08682048092118E-03 
889	 8.06578796569322E-03 
890	 8.06043184402511E-03 
891	 8.22295960052882E-03 
892	 8.49252802069001E-03 
893	 8.29142835608597E-03 
894	 8.33332812367847E-03 
895	 8.27448857085649E-03 
896	 7.86565309709675E-03 
897	 8.13250727521094E-03 
898	 7.89924746064524E-03 
899	 7.65824950999451E-03 
900	 8.06059654709968E-03 
901	 8.22200529573375E-03 
902	 8.14601364971792E-03 
903	 7.85777808575737E-03 
904	 7.51627545782983E-03 
905	 7.8335582724681E-03 
906	 7.97157159723891E-03 
907	 7.64152329953973E-03 
908	 7.16958500452593E-03 
909	 7.77840743112013E-03 
910	 7.90189204568383E-03 
911	 7.2596386719465E-03 
912	 6.98754820030409E-03 
913	 7.61240547360354E-03 
914	 7.83149282878748E-03 
915	 7.45995521829879E-03 
916	 7.73302353341171E-03 
917	 7.78191817806669E-03 
918	 7.76452038113635E-03 
919	 7.80171815034391E-03 
920	 7.77138140842291E-03 
921	 7.86899253703446E-03 
922	 7.68106354029188E-03 
923	 7.23452105694092E-03 
924	 7.69491634065567E-03 
925	 8.14695568339855E-03 
926	 8.46684099545769E-03 
927	 8.53200886317207E-03 
928	 7.29828210254794E-03 
929	 7.66329198152263E-03 
930	 8.41378609010511E-03 
931	 6.7758600933883E-03 
932	 7.83143387651861E-03 
933	 5.16676329473475E-03 
934	 3.44446755948106E-03 
935	 8.61580657395312E-03 
936	 8.22933138640941E-03 
937	 0.00857230414302 
938	 8.75054911551329E-03 
939	 7.19402790058894E-03 
940	 9.86443366973111E-03 
941	 7.48314578091646E-03 
942	 4.11892167603295E-03 
943	 7.94183325029828E-03 
944	 6.61872406861899E-03 
945	 5.91678795099304E-03 
946	 6.67241747126856E-03 
947	 6.35608643126653E-03 
948	 5.89411317384677E-03 
949	 8.60041519008361E-03 
950	 1.04645936434998E-02 
951	 5.87904518239458E-03 
952	 8.32265949900063E-03 
953	 8.57075671888289E-03 
954	 5.25615587460581E-03 
955	 3.82305179349079E-03 
956	 7.54006910340596E-03 
957	 9.69334379144814E-03 
958	 8.58350802678863E-03 
959	 6.97987872265409E-03 
960	 6.38510020506195E-03 
961	 6.75181738070965E-03 
962	 7.48417114764566E-03 
963	 7.74866472373011E-03 
964	 6.39853818549232E-03 
965	 6.46401504228029E-03 
966	 7.8236819803618E-03 
967	 8.11624237851551E-03 
968	 8.49516868875388E-03 
969	 7.58329705954355E-03 
970	 6.62435784547311E-03 
971	 8.3819142203606E-03 
972	 7.30911636677791E-03 
973	 7.36876157152848E-03 
974	 8.20979155420157E-03 
975	 5.45800462993023E-03 
976	 6.1792136928992E-03 
977	 7.7079606657832E-03 
978	 8.25375092602008E-03 
979	 8.02079989693456E-03 
980	 6.9585191185166E-03 
981	 6.32342649998807E-03 
982	 6.69918015051592E-03 
983	 7.63497535551745E-03 
984	 0.006394846030528 
985	 5.66588411120066E-03 
986	 6.63090187628054E-03 
987	 8.30374387754865E-03 
988	 7.28136119849008E-03 
989	 6.83494690664746E-03 
990	 7.53246623623953E-03 
991	 7.51434643689323E-03 
992	 7.08924354374062E-03 
993	 6.93245632183305E-03 
994	 7.04903719997187E-03 
995	 6.86642646756371E-03 
996	 5.54721692728198E-03 
997	 5.71782424607935E-03 
998	 7.03633230788215E-03 
999	 7.47616962364263E-03 
1000	 7.99440716837274E-03 
1001	 1.16012952987927E-02 
1002	 1.20321285254184E-02 
1003	 1.21070620433604E-02 
1004	 1.19430129351831E-02 
1005	 1.17672482853258E-02 
1006	 1.13029491330437E-02 
1007	 1.09929992756635E-02 
1008	 1.12474278431702E-02 
1009	 0.011531902352852 
1010	 0.011711250830437 
1011	 1.19502364476718E-02 
1012	 1.17250151394531E-02 
1013	 1.11620341378026E-02 
1014	 1.09211261379204E-02 
1015	 1.05904714601485E-02 
1016	 1.07180177971291E-02 
1017	 1.13516144663707E-02 
1018	 1.16493549685776E-02 
1019	 1.22545847085527E-02 
1020	 1.24926585222917E-02 
1021	 1.26072089484221E-02 
1022	 1.21398005203534E-02 
1023	 1.15997958721489E-02 
1024	 1.12544653343241E-02 
1025	 0.011037641819097 
1026	 0.010887609684257 
1027	 1.09177296591005E-02 
1028	 0.011374458411373 
1029	 0.011458563424134 
1030	 1.14555429871186E-02 
1031	 1.14235335224756E-02 
1032	 0.011190251024207 
1033	 1.12268830581168E-02 
1034	 1.14811973082769E-02 
1035	 1.15508155719702E-02 
1036	 1.16812085748127E-02 
1037	 1.17094130313188E-02 
1038	 1.16070987600377E-02 
1039	 1.12977110148917E-02 
1040	 1.13657703856154E-02 
1041	 1.16338880729434E-02 
1042	 1.16679698673459E-02 
1043	 0.011801889972481 
1044	 1.17264991889317E-02 
1045	 1.13454751885717E-02 
1046	 1.12350646388848E-02 
1047	 1.11326611336541E-02 
1048	 1.11686532174617E-02 
1049	 1.14569259009284E-02 
1050	 1.15027213554252E-02 
1051	 0.011504982770175 
1052	 1.15143001504358E-02 
1053	 1.14062293876194E-02 
1054	 1.13274780892337E-02 
1055	 0.011317715902673 
1056	 1.12715833792185E-02 
1057	 1.11925765416859E-02 
1058	 1.09724856538127E-02 
1059	 1.09736828158391E-02 
1060	 1.10425407217531E-02 
1061	 1.11608401509406E-02 
1062	 1.15608285672467E-02 
1063	 1.15724333560802E-02 
1064	 1.14161408538022E-02 
1065	 1.13039163549585E-02 
1066	 1.08356874464532E-02 
1067	 1.07405764936907E-02 
1068	 1.10136553709659E-02 
1069	 0.011039073544901 
1070	 1.10302834958411E-02 
1071	 1.10794429074061E-02 
1072	 0.011043670099967 
1073	 1.10121743071069E-02 
1074	 1.10026883686738E-02 
1075	 1.11307859507956E-02 
1076	 1.11422385862721E-02 
1077	 0.011044409595472 
1078	 1.10033060762906E-02 
1079	 1.08985336747061E-02 
1080	 1.09997627751521E-02 
1081	 1.13826204342159E-02 
1082	 1.13671862577594E-02 
1083	 1.12741329450504E-02 
1084	 1.11953459427371E-02 
1085	 1.05743101564038E-02 
1086	 0.010476401822312 
1087	 1.11035634937538E-02 
1088	 1.11858865295179E-02 
1089	 1.12882234751209E-02 
1090	 1.10356784713344E-02 
1091	 1.08766750417487E-02 
1092	 1.02345689922497E-02 
1093	 1.01301388702146E-02 
1094	 0.010414924027979 
1095	 1.05837696861568E-02 
1096	 1.09068588249834E-02 
1097	 1.09878882948715E-02 
1098	 1.10347592228945E-02 
1099	 1.09294667234919E-02 
1100	 1.04321270873374E-02 
1101	 0.010339832880908 
1102	 1.04077603611881E-02 
1103	 0.010451746683229 
1104	 1.08828055908511E-02 
1105	 1.10315801927018E-02 
1106	 1.06140070995462E-02 
1107	 9.89522118006541E-03 
1108	 9.48181517707812E-03 
1109	 9.94191356991201E-03 
1110	 9.8983321038973E-03 
1111	 1.01397454859858E-02 
1112	 1.04281680142501E-02 
1113	 1.04709729424844E-02 
1114	 1.02199584448082E-02 
1115	 1.04905097052141E-02 
1116	 1.07728315033373E-02 
1117	 9.46405288207729E-03 
1118	 9.55441974134187E-03 
1119	 0.012756381092561 
1120	 0.013520663307409 
1121	 1.23095757670381E-02 
1122	 1.29615877811564E-02 
1123	 1.25223534836345E-02 
1124	 1.01550551154941E-02 
1125	 0.010996732833947 
1126	 0.011195727304968 
1127	 1.05827020186005E-02 
1128	 1.22757267582798E-02 
1129	 1.19408073214309E-02 
1130	 1.08584783949277E-02 
1131	 1.09126686856634E-02 
1132	 1.10033960425143E-02 
1133	 1.02798182495568E-02 
1134	 9.30635845397133E-03 
1135	 9.96835764888334E-03 
1136	 1.13751714637371E-02 
1137	 1.11314393404097E-02 
1138	 0.011248045416069 
1139	 1.11589001698901E-02 
1140	 9.46896916849798E-03 
1141	 8.18151603616633E-03 
1142	 8.10691929940031E-03 
1143	 9.42350719698949E-03 
1144	 1.13433391283372E-02 
1145	 1.17338028640433E-02 
1146	 1.19691939787109E-02 
1147	 1.21706855514147E-02 
1148	 1.07837622058651E-02 
1149	 9.65612244203772E-03 
1150	 9.53065258470997E-03 
1151	 1.00422793151023E-02 
1152	 9.85015294031579E-03 
1153	 1.02722833164488E-02 
1154	 1.03183090290125E-02 
1155	 9.96856451165821E-03 
1156	 9.2804526871738E-03 
1157	 9.67030447784543E-03 
1158	 9.65895188441377E-03 
1159	 8.51547455862711E-03 
1160	 8.17825203803636E-03 
1161	 8.75796127269725E-03 
1162	 9.05283056018768E-03 
1163	 9.20955027719298E-03 
1164	 9.26124565775794E-03 
1165	 8.88692674471108E-03 
1166	 8.64928993800422E-03 
1167	 8.83623479456386E-03 
1168	 9.07652114778201E-03 
1169	 9.21587082389841E-03 
1170	 9.06459316319088E-03 
1171	 0.008846435469413 
1172	 8.38476560297151E-03 
1173	 8.44266806071171E-03 
1174	 8.7174062079224E-03 
1175	 8.68501650883227E-03 
1176	 8.81433067626069E-03 
1177	 0.009099609543453 
1178	 8.9780111579733E-03 
1179	 8.76522919590304E-03 
1180	 8.81373706138832E-03 
1181	 8.77020805645078E-03 
1182	 8.76956572154585E-03 
1183	 8.8756295879533E-03 
1184	 8.9407033342156E-03 
1185	 9.07112812503585E-03 
1186	 8.87175510402182E-03 
1187	 8.47829995353211E-03 
1188	 8.5109510782543E-03 
1189	 8.69993805648621E-03 
1190	 8.71026275562276E-03 
1191	 8.7345905181628E-03 
1192	 8.81150664591024E-03 
1193	 8.78801997833053E-03 
1194	 8.64677480003735E-03 
1195	 8.69217503990709E-03 
1196	 8.84159062428617E-03 
1197	 8.66574603967543E-03 
1198	 8.42055345680463E-03 
1199	 8.70685173999333E-03 
1200	 8.97192017732259E-03 
1201	 8.92550129119411E-03 
1202	 8.80162887357363E-03 
1203	 0.008520071016265 
1204	 8.43432013321824E-03 
1205	 8.63147102899227E-03 
1206	 8.71151939734294E-03 
1207	 8.6533370650018E-03 
1208	 8.65245100096204E-03 
1209	 8.55880221850108E-03 
1210	 8.5105273436065E-03 
1211	 8.73546841480338E-03 
1212	 8.72554976700364E-03 
1213	 0.008573622346637 
1214	 8.51047023065184E-03 
1215	 8.57356823671273E-03 
1216	 8.46918102998784E-03 
1217	 8.50752982713366E-03 
1218	 8.65342032961412E-03 
1219	 8.4827376303612E-03 
1220	 8.25114657886745E-03 
1221	 8.23775100738521E-03 
1222	 8.33421743088904E-03 
1223	 8.53739498168967E-03 
1224	 8.64838606204604E-03 
1225	 8.4313937648996E-03 
1226	 8.19830999765575E-03 
1227	 8.32728801655754E-03 
1228	 8.53835749660194E-03 
1229	 8.50499059436943E-03 
1230	 8.52044173564175E-03 
1231	 8.58172559539754E-03 
1232	 8.49294549351088E-03 
1233	 8.48787403655691E-03 
1234	 8.40924251243141E-03 
1235	 8.37822803225202E-03 
1236	 8.22784015069902E-03 
1237	 8.22266802653933E-03 
1238	 8.33727712465871E-03 
1239	 8.55246167370461E-03 
1240	 8.6424256422636E-03 
1241	 8.41461453794109E-03 
1242	 8.36907918920392E-03 
1243	 8.39704064156356E-03 
1244	 8.28659236957881E-03 
1245	 8.35830414504176E-03 
1246	 8.49449254359015E-03 
1247	 8.35563989347864E-03 
1248	 8.1879536023648E-03 
1249	 8.25136103558747E-03 
1250	 8.31656952942784E-03 
1251	 8.33480165310214E-03 
1252	 8.26099251731529E-03 
1253	 8.18529876889291E-03 
1254	 8.27274965176799E-03 
1255	 8.19802657610656E-03 
1256	 8.21759310150162E-03 
1257	 8.57024717480837E-03 
1258	 8.57981302443536E-03 
1259	 8.13606406437405E-03 
1260	 8.08421390055309E-03 
1261	 8.28154400184301E-03 
1262	 8.21585305894845E-03 
1263	 8.04776017914808E-03 
1264	 8.21752594489551E-03 
1265	 8.32778951342095E-03 
1266	 8.02810703585222E-03 
1267	 7.96547980332665E-03 
1268	 8.15558424234036E-03 
1269	 8.12412056541021E-03 
1270	 8.0283193077747E-03 
1271	 8.19812637901061E-03 
1272	 8.42004588159857E-03 
1273	 8.43556345171253E-03 
1274	 8.15644341627438E-03 
1275	 8.00396881391542E-03 
1276	 8.05634453271469E-03 
1277	 7.94876378542298E-03 
1278	 8.02044354661248E-03 
1279	 8.1177386864837E-03 
1280	 7.97305299746202E-03 
1281	 7.97098073365305E-03 
1282	 8.26149666312596E-03 
1283	 8.3430654906623E-03 
1284	 8.24169971120887E-03 
1285	 8.15205044883944E-03 
1286	 8.09124188069233E-03 
1287	 8.00480853151089E-03 
1288	 7.81441768931015E-03 
1289	 7.68844174943932E-03 
1290	 7.56123286960341E-03 
1291	 7.48016293259755E-03 
1292	 7.60712225901259E-03 
1293	 7.71825207366842E-03 
1294	 7.98256022887316E-03 
1295	 8.22467988014851E-03 
1296	 7.89480322682212E-03 
1297	 7.68961754041934E-03 
1298	 7.90394157854243E-03 
1299	 7.91740813772622E-03 
1300	 7.82233356750694E-03 
1301	 7.79616769376452E-03 
1302	 7.68622521791996E-03 
1303	 7.58226277716471E-03 
1304	 7.65824904482257E-03 
1305	 7.70051959935367E-03 
1306	 7.7781392210147E-03 
1307	 7.80603810273881E-03 
1308	 7.80953357139839E-03 
1309	 7.84859295224208E-03 
1310	 7.94204658244952E-03 
1311	 8.01805778616215E-03 
1312	 7.95809813397746E-03 
1313	 7.98972445883442E-03 
1314	 7.93353379952296E-03 
1315	 7.39642016655315E-03 
1316	 7.29731084013939E-03 
1317	 7.72657938972594E-03 
1318	 7.7395939415601E-03 
1319	 7.57467563289895E-03 
1320	 7.61796662172709E-03 
1321	 7.55429237851537E-03 
1322	 7.47649983418833E-03 
1323	 7.42852153351706E-03 
1324	 7.46962713498843E-03 
1325	 7.40714087868578E-03 
1326	 7.11728885332422E-03 
1327	 6.67520907775824E-03 
1328	 6.63313443424541E-03 
1329	 6.91224736450728E-03 
1330	 6.95209886363883E-03 
1331	 6.83104770969199E-03 
1332	 7.16300921345515E-03 
1333	 7.85567428296976E-03 
1334	 7.64113814627746E-03 
1335	 7.44526613467365E-03 
1336	 7.50162672107336E-03 
1337	 7.58494396860326E-03 
1338	 7.02882702321478E-03 
1339	 6.68403063345576E-03 
1340	 6.6305857983567E-03 
1341	 6.90848549433452E-03 
1342	 7.33453277506607E-03 
1343	 7.44029374971447E-03 
1344	 7.97498838986976E-03 
1345	 8.72306927283935E-03 
1346	 9.3996208023801E-03 
1347	 9.68930836922203E-03 
1348	 1.01791433242674E-02 
1349	 1.12367126776018E-02 
1350	 9.69792607847562E-03 
1351	 1.06334176937983E-02 
1352	 2.46326759904436E-02 
1353	 3.17396123550471E-02 
1354	 2.11932043085648E-02 
1355	 1.88604439256711E-02 
1356	 2.79728549384929E-02 
1357	 6.74417987972556E-04 
1358	 5.31889011950107E-03 
1359	 2.67108036730996E-02 
1360	 5.65066071892891E-02 
1361	 0.173369037595475 
1362	 0.26818437614338 
1363	 0.267591769797556 
1364	 0.201153231108504 
1365	 1.53988661545106E-02 
1366	 5.93521045268387E-03 
1367	 0.295890954441492 
1368	 0.375877204780423 
1369	 0.392831551458337 
1370	 0.460579115831983 
1371	 0.490648621893741 
1372	 0.470411891001856 
1373	 0.421099669339183 
1374	 0.330901212098524 
1375	 0.225485398800429 
1376	 0.142841368277007 
1377	 0.176297272578609 
1378	 0.168502499269627 
1379	-9.12244962676428E-02 
1380	-0.155635695672916 
1381	 3.09814433419307E-02 
1382	 0.12679650032741 
1383	 0.329566952889214 
1384	 0.543984063268002 
1385	 0.524085348810084 
1386	 0.564211550438272 
1387	 0.764680193362756 
1388	 0.840334454236697 
1389	 0.734253696621336 
1390	 0.630866840289711 
1391	 0.445890613432788 
1392	 0.345290392775356 
1393	 0.42843706933913 
1394	 0.426724920445857 
1395	 0.223350665867342 
1396	 0.266260533969988 
1397	 0.428358883958257 
1398	 0.350684946374246 
1399	 0.1968496135403 
1400	 0.326908088687739 
1401	 0.572362623510872 
1402	 0.541469176344312 
1403	 0.465304862935571 
1404	 0.771861484681786 
1405	 0.648846092691025 
1406	 0.242243718848823 
1407	 0.133402027899114 
1408	 0.105874264545564 
1409	 8.92168361246352E-02 
1410	 9.22392312748707E-02 
1411	 8.90893709212709E-02 
1412	 0.12836763100082 
1413	 9.88889196876432E-02 
1414	 1.07432915386932E-02 
1415	 8.10658106756979E-03 
1416	 3.31264265416038E-02 
1417	 3.25977070818662E-02 
1418	 4.29125030229449E-02 
1419	 4.77335549092538E-02 
1420	 5.10250119401353E-02 
1421	 0.038722275286735 
1422	 2.07311693932656E-02 
1423	 1.80549246360031E-02 
1424	 7.3184089589302E-03 
1425	 6.62829391790566E-03 
1426	 2.65804491995564E-02 
1427	 2.49889272917722E-02 
1428	 7.43916508965909E-03 
1429	 6.6122283758949E-03 
1430	 1.04859145810769E-02 
1431	 6.84997968409445E-03 
1432	 1.92656248289596E-03 
1433	 5.60193093531257E-03 
1434	 1.41437969754022E-02 
1435	 1.24753930314449E-02 
1436	 1.61524120781541E-02 
1437	 1.17166887111925E-02 
1438	 5.63225105985564E-03 
1439	 4.00348239952858E-03 
1440	 1.97580964845785E-03 
1441	 5.42073357389788E-03 
1442	 9.67134743138708E-03 
1443	 6.25039562098559E-03 
1444	 2.85770140797978E-03 
1445	 5.31727205451242E-03 
1446	 6.71116098951299E-03 
1447	 3.59522776517204E-03 
1448	 3.18205448622064E-03 
1449	 3.87620787135053E-03 
1450	 2.65026940982271E-03 
1451	 2.82675762672829E-03 
1452	 3.9268720515565E-03 
1453	 4.49686535584462E-03 
1454	 3.95084005581777E-03 
1455	 1.75984916198601E-03 
1456	 1.59495225299511E-03 
1457	 1.85216715190138E-03 
1458	 1.9882354568872E-03 
1459	 2.89004101762824E-03 
1460	 2.94023247102683E-03 
1461	 2.3006992521144E-03 
1462	 2.31323796013212E-03 
1463	 2.59277041305315E-03 
1464	 2.49287963248761E-03 
1465	 2.12308568534084E-03 
1466	 2.47016268617437E-03 
1467	 3.26884005253228E-03 
1468	 3.49641692163998E-03 
1469	 3.76053689545873E-03 
1470	 4.38521588356755E-03 
1471	 5.82670536550951E-03 
1472	 4.98464235101349E-03 
1473	 1.7647321870196E-03 
1474	 2.21865801291913E-03 
1475	 3.71325401443026E-03 
1476	 3.52067813795998E-03 
1477	 4.87865745114339E-03 
1478	 5.26443934983507E-03 
1479	 3.19120287684313E-03 
1480	 2.69590923304528E-03 
1481	 3.97258994014116E-03 
1482	 4.0956524895953E-03 
1483	 3.24498434030144E-03 
1484	 3.25587567898113E-03 
1485	 3.57419618941873E-03 
1486	 3.55512614568909E-03 
1487	 3.93770625773559E-03 
1488	 3.95076454660355E-03 
1489	 3.44389199945703E-03 
1490	 3.22945851481413E-03 
1491	 2.97870680389243E-03 
1492	 3.00569810511488E-03 
1493	 3.4418218851017E-03 
1494	 3.32256578841352E-03 
1495	 2.90570795884738E-03 
1496	 2.91762264592041E-03 
1497	 2.75992170220692E-03 
1498	 2.73169296805744E-03 
1499	 3.33128998516582E-03 
1500	 3.4674511228922E-03 
1501	 3.11779216988735E-03 
1502	 3.08968826945391E-03 
1503	 3.23583085157037E-03 
1504	 3.16111625729392E-03 
1505	 2.89402189821397E-03 
1506	 2.88647499630959E-03 
1507	 3.10794967198171E-03 
1508	 3.27122620474596E-03 
1509	 3.22539943927313E-03 
1510	 3.41200714878685E-03 
1511	 3.47612030558772E-03 
1512	 3.31603969688763E-03 
1513	 3.44669393151592E-03 
1514	 3.47743620754592E-03 
1515	 3.31062918296731E-03 
1516	 3.22618300963823E-03 
1517	 3.14215517354096E-03 
1518	 3.33694484217156E-03 
1519	 3.54432907472232E-03 
1520	 3.53726419899247E-03 
1521	 3.65030580003915E-03 
1522	 3.56465980170934E-03 
1523	 3.41574108781387E-03 
1524	 3.44139359341924E-03 
1525	 3.45337032124843E-03 
1526	 3.6259816618185E-03 
1527	 3.63172718903687E-03 
1528	 3.41350983017961E-03 
1529	 3.52158656542827E-03 
1530	 3.56928841495748E-03 
1531	 3.52609307990045E-03 
1532	 3.78058779154291E-03 
1533	 3.88678838713101E-03 
1534	 3.82048553661336E-03 
1535	 3.69086243887296E-03 
1536	 3.50383912956039E-03 
1537	 3.44940341894547E-03 
1538	 3.4210778494235E-03 
1539	 3.47942983806312E-03 
1540	 3.62462041832765E-03 
1541	 0.003737466613163 
1542	 3.7567289613859E-03 
1543	 3.62973585445787E-03 
1544	 3.69850406767841E-03 
1545	 3.80948858515954E-03 
1546	 3.64035737948988E-03 
1547	 3.77825257688977E-03 
1548	 4.06019420593666E-03 
1549	 3.93226144922425E-03 
1550	 3.84651733817358E-03 
1551	 3.85396567333307E-03 
1552	 3.78272440868363E-03 
1553	 3.86958924065927E-03 
1554	 3.89924739226272E-03 
1555	 3.89065492777507E-03 
1556	 3.98659055745906E-03 
1557	 3.93332173809989E-03 
1558	 3.99627072899536E-03 
1559	 4.03377823641497E-03 
1560	 3.84148734010226E-03 
1561	 3.86895944581696E-03 
1562	 3.99554154389561E-03 
1563	 4.19947368498457E-03 
1564	 4.34409598857446E-03 
1565	 4.20886147835937E-03 
1566	 4.11872179647778E-03 
1567	 4.03161987823168E-03 
1568	 3.94242534145997E-03 
1569	 3.99689672820901E-03 
1570	 4.01759112631658E-03 
1571	 3.97508754107061E-03 
1572	 4.02414982594265E-03 
1573	 4.13234435850774E-03 
1574	 4.19623921913587E-03 
1575	 4.17199935182225E-03 
1576	 4.07506449954934E-03 
1577	 3.91293925121133E-03 
1578	 3.90814379604748E-03 
1579	 4.04855318030843E-03 
1580	 0.003997757213425 
1581	 3.82359249186264E-03 
1582	 3.72221834450666E-03 
1583	 3.89833940109649E-03 
1584	 4.03417109448537E-03 
1585	 3.96289475100663E-03 
1586	 4.05209686763793E-03 
1587	 3.9333619143878E-03 
1588	 3.8313923729457E-03 
1589	 4.15870385269838E-03 
1590	 4.14034977385859E-03 
1591	 3.90109731124623E-03 
1592	 3.90560292820163E-03 
1593	 3.92470337846968E-03 
1594	 4.16615084715287E-03 
1595	 4.42430691594016E-03 
1596	 4.29330596323907E-03 
1597	 3.98589616223518E-03 
1598	 3.87691431118553E-03 
1599	 4.14858452127427E-03 
1600	 4.35189247717737E-03 
1601	 4.30983319716594E-03 
1602	 4.45278501672082E-03 
1603	 4.55418815637904E-03 
1604	 4.21391909649736E-03 
1605	 4.10019956200901E-03 
1606	 4.45449072240435E-03 
1607	 4.35052683946178E-03 
1608	 3.97909385447539E-03 
1609	 4.00503350830418E-03 
1610	 4.09546209476258E-03 
1611	 4.08191409267565E-03 
1612	 4.18985635668203E-03 
1613	 4.61252398834356E-03 
1614	 4.72721242923555E-03 
1615	 4.25576588970594E-03 
1616	 4.2996265185391E-03 
1617	 4.68856899784057E-03 
1618	 4.5428113336152E-03 
1619	 4.36605439116974E-03 
1620	 4.57522652409195E-03 
1621	 4.55257392876383E-03 
1622	 4.31441797547704E-03 
1623	 4.36387160273988E-03 
1624	 4.32484775469699E-03 
1625	 4.27234219155628E-03 
1626	 4.34490422745508E-03 
1627	 4.29709128813449E-03 
1628	 4.49463616473985E-03 
1629	 4.69491476791208E-03 
1630	 4.49718394753441E-03 
1631	 4.25870064612096E-03 
1632	 4.27459149638475E-03 
1633	 4.43865055446679E-03 
1634	 4.45692174261629E-03 
1635	 4.65346867102553E-03 
1636	 4.86048396824865E-03 
1637	 4.56344785137637E-03 
1638	 4.41877395154272E-03 
1639	 4.66531290871016E-03 
1640	 4.72610118213117E-03 
1641	 4.5873434776923E-03 
1642	 4.59965391315592E-03 
1643	 4.53858458320569E-03 
1644	 4.45372390222579E-03 
1645	 4.62714465166063E-03 
1646	 4.58529562741164E-03 
1647	 4.37019810129612E-03 
1648	 4.39796794190704E-03 
1649	 4.4733060477547E-03 
1650	 4.50618449636497E-03 
1651	 4.52797878598973E-03 
1652	 4.58445230782725E-03 
1653	 4.69167977061384E-03 
1654	 4.63386792497931E-03 
1655	 4.44202700116793E-03 
1656	 4.34550259428652E-03 
1657	 4.11727871350284E-03 
1658	 4.12317627656452E-03 
1659	 4.3928424372137E-03 
1660	 4.40564978650008E-03 
1661	 4.55284168907767E-03 
1662	 4.51687135316983E-03 
1663	 4.08198323558724E-03 
1664	 4.09723504163102E-03 
1665	 4.17349408758722E-03 
1666	 4.13241038626953E-03 
1667	 4.38522780739017E-03 
1668	 4.45903632631979E-03 
1669	 4.4064281390889E-03 
1670	 4.52482213944621E-03 
1671	 4.40088720043668E-03 
1672	 4.02540998263488E-03 
1673	 3.99677793929713E-03 
1674	 4.04716784000385E-03 
1675	 4.11860865254589E-03 
1676	 4.37676679114424E-03 
1677	 4.48793589329083E-03 
1678	 4.3185997565371E-03 
1679	 4.11583213946344E-03 
1680	 4.28460706635454E-03 
1681	 4.50025845143858E-03 
1682	 4.19038884107855E-03 
1683	 3.9566565253426E-03 
1684	 4.16354276913965E-03 
1685	 4.29017437710292E-03 
1686	 4.48057031788188E-03 
1687	 4.60850539299907E-03 
1688	 4.42374433330881E-03 
1689	 4.29420024720968E-03 
1690	 4.1108598295844E-03 
1691	 4.25701409691002E-03 
1692	 4.51360256808175E-03 
1693	 4.21174974266031E-03 
1694	 4.09227485684726E-03 
1695	 4.1656733207339E-03 
1696	 4.18684044104402E-03 
1697	 4.1643351435068E-03 
1698	 4.09913693259013E-03 
1699	 4.32093806626139E-03 
1700	 4.17379137700007E-03 
1701	 3.89589012171339E-03 
1702	 4.25032479057891E-03 
1703	 4.46494402400796E-03 
1704	 4.35598232930888E-03 
1705	 4.35463322824285E-03 
1706	 4.4219359684639E-03 
1707	 4.41138497052183E-03 
1708	 4.49111647083932E-03 
1709	 4.76338913396975E-03 
1710	 0.004760436863246 
1711	 4.58832567937331E-03 
1712	 4.29794576950231E-03 
1713	 4.13231617404602E-03 
1714	 4.33441188518083E-03 
1715	 4.97718046489184E-03 
1716	 4.66789667130542E-03 
1717	 4.65024424677167E-03 
1718	 4.38577200020809E-03 
1719	 3.75682608948745E-03 
1720	 3.97897493803121E-03 
1721	 4.13505791447636E-03 
1722	 4.00181499195831E-03 
1723	 4.75924433377853E-03 
1724	 5.36731433675734E-03 
1725	 4.8758661798335E-03 
1726	 4.52602574471949E-03 
1727	 4.54382184093687E-03 
1728	 4.2971838251694E-03 
1729	 4.55350605258219E-03 
1730	 4.53179603552613E-03 
1731	 3.68379324555075E-03 
1732	 3.89741339509761E-03 
1733	 4.7515465948379E-03 
1734	 4.78163021892891E-03 
1735	 4.62487600867523E-03 
1736	 4.39927932190141E-03 
1737	 3.98093786773293E-03 
1738	 4.31984640310533E-03 
1739	 4.89085868700014E-03 
1740	 4.47672419655358E-03 
1741	 3.87556825823328E-03 
1742	 3.85908636805547E-03 
1743	 3.85368528029365E-03 
1744	 4.12294142157078E-03 
1745	 4.51733692336198E-03 
1746	 3.34343755210031E-03 
1747	 3.29167368003384E-03 
1748	 3.9144062690873E-03 
1749	 4.01829509052154E-03 
1750	 4.79684497964804E-03 
1751	 4.85293713422308E-03 
1752	 3.69720353663051E-03 
1753	 3.61338254460428E-03 
1754	 4.04650559301701E-03 
1755	 3.94062622301742E-03 
1756	 4.15469842128513E-03 
1757	 4.00020429514317E-03 
1758	 3.40578600278561E-03 
1759	 3.66196696404975E-03 
1760	 4.38965374222058E-03 
1761	 4.77699438404426E-03 
1762	 5.17479594629668E-03 
1763	 5.06411507853608E-03 
1764	 4.07150380362709E-03 
1765	 3.26009926060645E-03 
1766	 3.4140528607744E-03 
1767	 4.04994176490396E-03 
1768	 4.39882124210937E-03 
1769	 4.80985010344941E-03 
1770	 4.57651392196031E-03 
1771	 3.32658619599203E-03 
1772	 3.8156503252613E-03 
1773	 5.22798992938938E-03 
1774	 4.54745844849606E-03 
1775	 3.84621537301798E-03 
1776	 4.1218681015822E-03 
1777	 4.7400257192607E-03 
1778	 4.8899070507041E-03 
1779	 6.12384152405834E-03 
1780	 6.09975371704552E-03 
1781	 3.34394853053868E-03 
1782	 3.23933965849311E-03 
1783	 4.80393529635813E-03 
1784	 4.97205585289954E-03 
1785	 6.53329102722074E-03 
1786	 6.46316777471093E-03 
1787	 3.3681756521118E-03 
1788	 2.80981347795138E-03 
1789	 3.6542208492397E-03 
1790	 2.54023473409357E-03 
1791	 4.22406108290464E-03 
1792	 5.41624987257253E-03 
1793	-5.99692534144481E-04 
1794	-2.90807134431611E-03 
1795	-6.07301215995256E-04 
1796	 2.02318033827757E-03 
1797	 0.010167734884874 
1798	 1.63917574908689E-02 
1799	 0.015573770970112 
1800	-3.573495815247E-04 
1801	-5.89574355425261E-03 
1802	-7.49092914651274E-03 
1803	-9.97888061969155E-03 
1804	 8.27976231580841E-03 
1805	 1.98462116911022E-02 
1806	 0.017277649862446 
1807	 2.35937740025181E-02 
1808	 0.040366595096095 
1809	 4.31491160009863E-02 
1810	 2.80703512056683E-02 
1811	 2.89925302506112E-02 
1812	 2.95118135366705E-02 
1813	 1.00677916198834E-02 
1814	-2.08968242192344E-02 
1815	-0.021589399831722 
1816	-4.36381500915199E-02 
1817	 6.64586895093802E-02 
1818	 0.244473030523146 
1819	 0.236665602124065 
1820	 0.34923445186894 
1821	-7.96331150005436E-02 
1822	-0.244068640944036 
1823	-0.186045815140912 
1824	-0.15601279581173 
1825	 0.219207320256352 
1826	 0.425456420347267 
1827	 0.33245180179038 
1828	 0.361448123625773 
1829	 0.32833832933929 
1830	 0.350369717552902 
1831	 2.93230591394966 
1832	-1.44837481228155 
1833	 0.510720976265156 
1834	 0.462937418242614 
1835	 0.395383537097278 
1836	 0.242151267711485 
1837	-0.593873143734461 
1838	-1.48245439882979 
1839	 3.02257607549604 
1840	 1.58520100212222 
1841	-8.47500585800124E-02 
1842	-1.49952930138113 
1843	-1.20938092462221 
1844	-1.14083677715059 
1845	-1.02261347046019 
1846	 1.56988135020606 
1847	 1.6901339389906 
1848	 0.984546427022917 
1849	 0.205738028254004 
1850	-0.250890412689969 
1851	-0.423882410596619 
1852	-0.151166735943237 
1853	-1.47870263887095 
1854	-0.197815890128204 
1855	 0.205130794070256 
1856	 0.19466908476182 
1857	 0.319133441752956 
1858	 0.441099187072924 
1859	-3.25429667795115 
1860	 2.64858323769534 
1861	-0.158810385786622 
1862	 0.216374884671229 
1863	 0.326739447503026 
1864	-4.97828564720516 
1865	-1.9073722230112 
1866	-2.52880304211768 
1867	-2.54954959560397 
1868	-0.354652626401715 
1869	-0.227265002678706 
1870	-6.14458278145686E-02 
1871	-0.11516966727493 
1872	-0.423867353858614 
1873	-0.386528452208447 
1874	-2.73609063348036E-02 
1875	 1.60374916351625 
1876	 2.39969580862926 
1877	 2.25333447470974 
1878	 1.9097337171739 
1879	 0.630603993379045 
1880	 0.193505783182224 
1881	-8.93101250353655E-02 
1882	 3.60340554211668E-02 
1883	-0.350378047138964 
1884	-0.391074845598875 
1885	 1.48562491631772 
1886	-17.2978676304625 
1887	 0.112915706526521 
1888	-0.386652600107873 
1889	-0.762546977931373 
1890	-2.44358304454354 
1891	-2.04911054351045 
1892	-0.548444867850747 
1893	-2.850461474061 
1894	-2.69318342542719 
1895	-4.65698203201994 
1896	-0.529647682396277 
1897	-9.83914378206771E-02 
1898	 1.46131853333686E-02 
1899	 0.154286411196007 
1900	 1.20194556875448E-02 
1901	-0.114524651249468 
1902	-8.13496278698765E-02 
1903	-0.204335317562668 
1904	-30.8877197301478 
1905	 0.514839823045864 
1906	-0.247215010568238 
1907	-0.821516520871308 
1908	-1.95751652337459 
1909	 1.40657241599785 
1910	 26.3083700761894 
1911	-1.31477449465069 
1912	-1.2245228249324 
1913	-2.80031290854082 
1914	-3.19182027795321 
1915	-5.50661496355659 
1916	 0.673772108281765 
1917	 0.621020086577483 
1918	-0.763787162880207 
1919	-1.18764696725372 
1920	-3.07971237780886 
1921	-1.15335992831612 
1922	-0.388142109586849 
1923	 27.986731313567 
1924	-7.53200909809816E-02 
1925	 0.1275133565831 
1926	-7.1582850517351E-03 
1927	-0.273667906646636 
1928	-0.11940481218429 
1929	-0.337336868242585 
1930	-0.355650988101783 
1931	-0.124885506031026 
1932	-0.46811278424461 
1933	-0.495856864221023 
1934	-0.2050897358221 
1935	-0.203403938627829 
1936	-6.14023699696875E-02 
1937	 3.34647282329339E-02 
1938	-3.76802273336765E-02 
1939	-2.96023718742932E-02 
1940	-1.81350679940902E-03 
1941	 4.29850503631234E-02 
1942	 0.03120799020158 
1943	 3.06850749535885E-02 
1944	 2.08502657464147E-02 
1945	 9.77890494645286E-04 
1946	-9.20885108590268E-03 
1947	-1.08094413883355E-02 
1948	-2.96978968803944E-03 
1949	 0.01073778913834 
1950	 2.09035844027106E-02 
1951	 3.07570115651096E-02 
1952	 3.04151356018684E-02 
1953	 2.11013988730604E-02 
1954	 4.27982126694029E-03 
1955	 8.71969908289568E-03 
1956	 0.002623997036151 
1957	-4.45696707242154E-03 
1958	 2.98962095575459E-03 
1959	-0.003332238691703 
1960	-3.87164758613657E-03 
1961	 3.32095162791631E-04 
1962	-4.94518115911296E-03 
1963	-6.94691345123792E-03 
1964	-3.81599079958133E-03 
1965	-2.13094979517609E-03 
1966	-1.3491552374369E-03 
1967	 5.32902385635821E-04 
1968	 2.18848431150767E-03 
1969	 8.68011683542239E-04 
1970	 3.54182924448889E-04 
1971	 3.01700323650699E-03 
1972	 2.86521604491315E-03 
1973	 1.14768995414186E-03 
1974	 1.95589497169435E-03 
1975	 1.62156417127235E-03 
1976	 7.69181671511985E-04 
1977	 9.68293110466048E-04 
1978	 6.68944694452965E-04 
1979	 5.19126502302799E-04 
1980	-3.86435889284518E-04 
1981	-4.35098360043792E-04 
1982	 1.42093615399275E-03 
1983	 2.9219016390281E-03 
1984	 2.01047365742433E-03 
1985	 1.9032149635268E-03 
1986	 1.88883091820663E-03 
1987	 7.09939659112512E-04 
1988	 1.33109425579721E-03 
1989	 2.51784662307983E-03 
1990	 2.94827481917867E-03 
1991	 2.91178752326735E-03 
1992	 1.59363633131668E-03 
1993	 8.31269492449639E-04 
1994	 7.58109111976959E-04 
1995	 9.63795246531282E-04 
1996	 6.13831341442404E-04 
1997	 2.06767508282998E-03 
1998	 3.04195691981909E-03 
1999	 9.32106780878183E-04 
2000	 1.18577960219473E-03 
2001	 3.10463564519484E-03 
2002	 3.23911159009754E-03 
2003	 3.50163177683742E-03 
2004	 1.83033885516633E-03 
2005	 3.64694844374661E-04 
2006	 7.36074633989347E-04 
2007	 4.95705591367408E-04 
2008	 0.002985678078292 
2009	 4.0796355104059E-03 
2010	 3.16319516308878E-03 
2011	 3.03958905851688E-03 
2012	 4.06618730125033E-03 
2013	 2.45580895057562E-03 
2014	 2.92915467939192E-03 
2015	 4.34971536863699E-03 
2016	 6.35372941175768E-03 
2017	 9.46489535877749E-03 
2018	 9.16817878819109E-03 
2019	 5.81912888597195E-03 
2020	 3.40932055131066E-03 
2021	 2.31328846820344E-03 
2022	 1.99697370706027E-03 
2023	 2.94170342380633E-03 
2024	 3.65752513473586E-03 
2025	 5.08937496837478E-03 
2026	 5.24339135684861E-03 
2027	 5.18703464849452E-03 
2028	 4.43518823957621E-03 
2029	 3.86636888427737E-03 
2030	 3.36833480597251E-03 
2031	 3.61991640903625E-03 
2032	 3.36372769347068E-03 
2033	 2.71394103543647E-03 
2034	 2.72470317947386E-03 
2035	 2.48187730796798E-03 
2036	 3.10757859127553E-03 
2037	 3.89249740830808E-03 
2038	 3.40151579479999E-03 
2039	 3.4059875489783E-03 
2040	 3.40140686629891E-03 
2041	 3.05812214363502E-03 
2042	 2.74306061745431E-03 
2043	 2.45622241064492E-03 
2044	 1.45580519193854E-03 
2045	 6.91422461595775E-04 
2046	 2.15488135777169E-03 
2047	 3.44559346766376E-03 
2048	 3.65977314350401E-03 
2049	 3.7456401544159E-03 
2050	 3.59963289213484E-03 
2051	 3.19277001847023E-03 
2052	 2.59557645726023E-03 
2053	 1.94922982953491E-03 
2054	 1.13856804175913E-03 
2055	 1.07966555749953E-03 
2056	 1.18530235071921E-03 
2057	 3.3631526467269E-03 
2058	 3.67293570199535E-03 
2059	 2.20183374698781E-03 
2060	 1.92503337223078E-03 
2061	 1.78568185612288E-03 
2062	 1.76184439450801E-03 
2063	 2.07613149683063E-03 
2064	 3.49482574675167E-03 
2065	 3.56153096022367E-03 
2066	 3.75248071113247E-03 
2067	 3.76177763087948E-03 
2068	 2.51271371824454E-03 
2069	 1.8186267995842E-03 
2070	 1.4111710230956E-03 
2071	 1.72390171886574E-03 
2072	 1.99179872558909E-03 
2073	 2.07600432105428E-03 
2074	 2.45295365159966E-03 
2075	 2.26534195986614E-03 
2076	 1.10487160981632E-03 
2077	 1.03374665954761E-03 
2078	 1.08402462284499E-03 
2079	 9.64481708205153E-04 
2080	 9.83189571873517E-04 
2081	 2.34984723456719E-03 
2082	 2.32411499696732E-03 
2083	 2.39138399266907E-03 
2084	 0.002543532456334 
2085	 1.32803917457195E-03 
2086	 1.0251822247783E-03 
2087	 1.41934888194858E-03 
2088	 9.54202561978962E-04 
2089	 1.13338059906352E-03 
2090	 2.32608924913167E-03 
2091	 2.75410841625201E-03 
2092	 2.65602641843087E-03 
2093	 2.67253658407593E-03 
2094	 3.00451304328768E-03 
2095	 2.2979360020273E-03 
2096	 2.26013460818953E-03 
2097	 3.55509328332607E-03 
2098	 4.0882097235168E-03 
2099	 4.32495513426614E-03 
2100	 3.99120687906735E-03 
2101	 3.71786966266583E-03 
2102	 3.39532506142483E-03 
2103	 2.5797125408832E-03 
2104	 2.33367586735917E-03 
2105	 2.89199040195903E-03 
2106	 3.21093896008331E-03 
2107	 3.06157808073321E-03 
2108	 3.08760818381504E-03 
2109	 4.03903713744224E-03 
2110	 3.95320216096421E-03 
2111	 3.26861744440587E-03 
2112	 3.83451831537641E-03 
2113	 3.61098083017071E-03 
2114	 1.8949884711771E-03 
2115	 1.38005426477297E-03 
2116	 1.81122971092387E-03 
2117	 1.73443121549398E-03 
2118	 2.02173966128567E-03 
2119	 1.56679241826634E-03 
2120	 7.1905373243769E-04 
2121	-4.99575471332189E-04 
2122	-1.08160842607308E-03 
2123	-6.69447363328703E-04 
2124	 4.99931721313498E-04 
2125	 1.53201690946046E-03 
2126	 2.08318387043834E-03 
2127	 2.49930057828322E-03 
2128	 2.79770177718931E-03 
2129	 2.9498610482338E-03 
2130	 3.17587953889098E-03 
2131	 2.61858826091226E-03 
2132	 2.67197675594864E-03 
2133	 3.32824113042164E-03 
2134	 3.43044082409889E-03 
2135	 3.18180916728214E-03 
2136	 3.5640016169974E-03 
2137	 4.23487451814985E-03 
2138	 4.33355473356579E-03 
2139	 4.4901818493677E-03 
2140	 4.24282876742646E-03 
2141	 3.25388323809277E-03 
2142	 2.61652286526877E-03 
2143	 1.7673205775365E-03 
2144	 1.86745301271681E-03 
2145	 1.26706503860591E-03 
2146	 9.91524014866536E-04 
2147	 1.47646413230569E-03 
2148	 1.27391847557102E-03 
2149	 1.32952916209692E-03 
2150	 1.12672692062318E-03 
2151	 1.10474050476034E-03 
2152	 1.21466845977949E-03 
2153	 8.73104817987426E-04 
2154	 1.70532854980786E-03 
2155	 1.64850691826194E-03 
2156	 6.76560995474275E-04 
2157	 1.10226466465211E-03 
2158	 2.73866855027706E-03 
2159	 2.69644073379503E-03 
2160	 2.46014861936217E-03 
2161	 2.72240831938496E-03 
2162	 2.15154478156442E-03 
2163	 2.27514427572368E-03 
2164	 3.75691478801403E-03 
2165	 3.86733135099607E-03 
2166	 2.75208388368512E-03 
2167	 2.3695726484299E-03 
2168	 2.00044054983789E-03 
2169	 1.93626544427237E-03 
2170	 2.62395229738782E-03 
2171	 2.5101739148265E-03 
2172	 1.79747126652053E-03 
2173	 1.68160471903224E-03 
2174	 2.20156944391554E-03 
2175	 2.7465730789365E-03 
2176	 4.2072817592238E-03 
2177	 4.38399420299266E-03 
2178	 2.58652010696724E-03 
2179	 1.89744432926336E-03 
2180	 2.17501824909462E-03 
2181	 2.25474976193128E-03 
2182	 3.39411605848732E-03 
2183	 5.09899197426717E-03 
2184	 4.37134879524326E-03 
2185	 3.51615875732237E-03 
2186	 2.94557060946114E-03 
2187	 1.53576883580813E-03 
2188	 1.23681238736585E-03 
2189	 2.28842629338069E-03 
2190	 1.93412651304354E-03 
2191	 8.00376967397558E-04 
2192	 1.21297091427665E-03 
2193	 2.11313603253214E-03 
2194	 2.31953896184217E-03 
2195	 4.14079479314478E-03 
2196	 4.00146605706774E-03 
2197	 3.99650932443065E-04 
2198	-1.54810034969855E-04 
2199	 7.96304028902937E-04 
2200	 1.11697422934148E-03 
2201	 1.73641359029559E-03 
2202	 2.41049846408183E-03 
2203	 1.91603047949415E-03 
2204	 1.86201402535749E-03 
2205	 2.26941317531689E-03 
2206	 2.63674152567067E-03 
2207	 2.23510595961775E-03 
2208	 1.02195709159523E-03 
2209	 1.07539701649225E-03 
2210	 1.22482066291351E-03 
2211	-8.98529120821863E-06 
2212	 1.54697130988089E-04 
2213	 8.9346437282027E-04 
2214	 1.45816366519036E-03 
2215	 3.59745601297141E-03 
2216	 4.38433117373172E-03 
2217	 4.09761346446647E-03 
2218	 2.24007305485602E-03 
2219	 1.69537236178181E-03 
2220	 9.34501806875531E-04 
2221	 4.38463269552498E-04 
2222	 3.62870215468408E-04 
2223	 5.36777179946063E-04 
2224	 5.66019023595184E-04 
2225	 1.60800670168967E-04 
2226	 5.45233092545875E-04 
2227	 1.20119731062993E-03 
2228	 1.25217153561941E-03 
2229	 1.34585508235116E-03 
2230	 1.94703598523479E-03 
2231	 1.63968973292519E-03 
2232	 1.52911158897311E-04 
2233	-3.01693734221337E-04 
2234	-6.64410871663417E-04 
2235	 6.52535981220209E-04 
2236	-3.06195260099021E-04 
2237	-6.44098703478171E-04 
2238	 4.15474052892386E-04 
2239	 6.76051415660778E-04 
2240	 2.47971206040055E-03 
2241	 3.2627780197609E-03 
2242	 2.33698149607345E-03 
2243	 1.39107268866493E-03 
2244	 8.96501319661962E-04 
2245	 1.99168057617582E-03 
2246	 0.003490969165738 
2247	 2.89920510625657E-03 
2248	 2.89524244951964E-03 
2249	 2.83011538321185E-03 
2250	 5.50124866492661E-04 
2251	 1.99196799239884E-03 
2252	 2.56285911802811E-03 
2253	 2.12632623244439E-04 
2254	 1.91771177791633E-03 
2255	 3.61394826763615E-03 
2256	 4.97362673240109E-03 
2257	 7.50188591582747E-03 
2258	 5.77193322305496E-03 
2259	 2.56819765211952E-03 
2260	 2.12166740128218E-03 
2261	 2.6778480610143E-03 
2262	 1.56388871608343E-03 
2263	 2.08448873423541E-03 
2264	 2.24629912317902E-03 
2265	-1.01944547676084E-03 
2266	-6.85873573045268E-04 
2267	 3.28616722071893E-03 
2268	 3.94182859841116E-03 
2269	 4.34755364566463E-03 
2270	 4.77577910962682E-03 
2271	 4.88722361961256E-03 
2272	 4.2905956912506E-03 
2273	 2.19186355767599E-03 
2274	 1.12225667105385E-03 
2275	-1.04282887000246E-03 
2276	-1.51964214235487E-03 
2277	 1.41599611538407E-03 
2278	 1.81857598797349E-03 
2279	 6.54920319599751E-04 
2280	 2.91421885695797E-04 
2281	-7.06632950340591E-04 
2282	-2.12819360067888E-03 
2283	-8.6873086112005E-04 
2284	 1.87620208372673E-03 
2285	 3.08671582932692E-03 
2286	 3.17462867434875E-03 
2287	 8.75719822199648E-04 
2288	 1.5804316778912E-03 
2289	 2.4781017965809E-03 
2290	-8.30732124586597E-04 
2291	-1.34141506388949E-03 
2292	-3.75184324493641E-03 
2293	-6.36441170020236E-03 
2294	-3.0569940938888E-03 
2295	-1.99704965306374E-03 
2296	-2.92337127572051E-03 
2297	-4.02224016114102E-03 
2298	-5.38405691673321E-03 
2299	-5.0412959606057E-03 
2300	-4.53796365501606E-03 
2301	-2.61879669459959E-03 
2302	-1.18044898604933E-03 
2303	 2.27008369910426E-04 
2304	 1.14224990200563E-03 
2305	-1.08699537837668E-03 
2306	-8.03966021403682E-04 
2307	 8.12754632885094E-04 
2308	-2.9632156835099E-04 
2309	 4.02609998614921E-05 
2310	 2.37484402919648E-03 
2311	 2.51118755858915E-03 
2312	 5.30653866608381E-04 
2313	-3.59744989528113E-05 
2314	-4.08141905234892E-03 
2315	-1.11441991599153E-02 
2316	-7.53125490588916E-03 
2317	-2.41311969355984E-03 
2318	-3.97586530455795E-03 
2319	-4.50215736715227E-03 
2320	-5.20755245573176E-03 
2321	-2.47464775059669E-04 
2322	 6.50864388465176E-03 
2323	 8.26324602428177E-03 
2324	 6.90876357970051E-03 
2325	 2.8349683819767E-03 
2326	-1.85390566876747E-04 
2327	 6.93635529017298E-04 
2328	 2.23464032085421E-03 
2329	-7.96206361457307E-04 
2330	-2.57153353254427E-03 
2331	-1.46457233722877E-03 
2332	 9.93648078742405E-04 
2333	-1.86528566890404E-04 
2334	-3.81442925872545E-03 
2335	-1.3931509879115E-03 
2336	-2.18209495535174E-03 
2337	-6.59653596778318E-04 
2338	 1.78569768750951E-03 
2339	-2.85680243040047E-04 
2340	 4.09715554392405E-03 
2341	 4.68385965896657E-03 
2342	 5.77943171509755E-03 
2343	 3.41362006827408E-03 
2344	-5.33059151059413E-03 
2345	-4.33419371107331E-03 
2346	-6.86611307264117E-04 
2347	 1.97216462462482E-04 
2348	-1.63433536087531E-03 
2349	-5.16999662976678E-05 
2350	 2.08877043046696E-03 
2351	 5.43516354899558E-03 
2352	 2.94390035217212E-03 
2353	-6.24827857439898E-03 
2354	-2.08513538853523E-03 
2355	-2.43593931194357E-03 
2356	-1.59709831663148E-03 
2357	 7.42564915652383E-03 
2358	 2.88701187413774E-03 
2359	 4.14251681367049E-04 
2360	 4.0377988026011E-03 
2361	 3.98947932891083E-03 
2362	 4.43078565727188E-03 
2363	-3.84179544967815E-03 
2364	-1.39548603145866E-02 
2365	-2.13948201052212E-02 
2366	-2.88907300132001E-02 
2367	-2.29463588331123E-02 
2368	-0.01969077748387 
2369	-1.75276807229481E-02 
2370	-5.87347849015386E-03 
2371	-1.20307629568776E-02 
2372	-1.38837948341762E-02 
2373	 8.62480041734083E-03 
2374	 2.69364820175775E-02 
2375	 3.48524699324166E-02 
2376	 4.01888878945448E-02 
2377	 0.047337503832882 
2378	 0.030103784710431 
2379	-3.68292333817812E-03 
2380	 1.22035111317654E-03 
2381	 3.50605694519051E-03 
2382	-2.65622407971402E-02 
2383	-2.39670676554609E-02 
2384	-2.52683869599041E-02 
2385	-0.041865961629954 
2386	-9.72389307514658E-03 
2387	-8.35755327572641E-05 
2388	-5.31637594919751E-03 
2389	 7.36730750089846E-03 
2390	-3.04624080444416E-02 
2391	-4.76831428040864E-02 
2392	-2.73382609808629E-02 
2393	-4.33909012802238E-02 
2394	-3.28555318320289E-02 
2395	-8.3018385244269E-03 
2396	-1.81081219285099E-02 
2397	-1.62947002917069E-02 
2398	-9.25131525253618E-03 
2399	-3.97000819649597E-03 
2400	-1.42914265945272E-02 
2401	-2.71667390947646E-02 
2402	-0.043074220430487 
2403	-7.25399822332559E-02 
2404	-5.45640525433514E-02 
2405	-1.61153157765399E-02 
2406	-7.45428172965673E-03 
2407	-1.23262530619959E-02 
2408	-3.33518222952508E-02 
2409	-0.052710111140905 
2410	-0.0760395858616 
2411	-0.110626819072558 
2412	-0.110253732932562 
2413	-6.91999668806995E-02 
2414	-5.63715930164222E-02 
2415	-6.07471659576898E-03 
2416	 8.20091593313025E-02 
2417	 1.41551607269723E-02 
2418	-4.15915782668011E-02 
2419	 1.59296223882518E-02 
2420	-0.029360739989582 
2421	-4.20098207928743E-02 
2422	-6.69249400954303E-03 
2423	-0.06614701101409 
2424	-6.79496735130497E-02 
2425	-2.42616845288966E-02 
2426	-1.65496475446458E-03 
2427	-9.01633129695982E-03 
2428	-6.51207170235558E-02 
2429	-0.108294464656289 
2430	-0.129867714257343 
2431	-0.105910864038509 
2432	-7.89801839025449E-02 
2433	-0.108991846918045 
2434	-0.117359279660598 
2435	-0.177363935673026 
2436	-0.287942326274689 
2437	-0.238593699207151 
2438	-0.187327777292445 
2439	-0.148449505592867 
2440	-0.059038267938794 
2441	-0.155178795389939 
2442	-0.273205545644502 
2443	-0.244250879964734 
2444	-0.180797388775958 
2445	-4.34082450043469E-02 
2446	 9.56492805452351E-03 
2447	 0.130851938777053 
2448	 0.27260718245036 
2449	 0.614877826588179 
2450	 0.666757824905599 
2451	 0.013545801970879 
2452	-0.585831389547925 
2453	-1.87257507168111 
2454	-1.66939167763292 
2455	-1.07804153115779 
2456	-0.745607527377603 
2457	-0.382474905738425 
2458	-0.2154948677781 
2459	-5.39809323050624E-03 
2460	 6.37498249231494E-02 
2461	 7.67032894308702E-03 
2462	-3.57937477361707E-02 
2463	-0.157108236900572 
2464	-0.303518478843777 
2465	-0.319254078514814 
2466	-0.261775153502269 
2467	-0.246948538652526 
2468	 1.79610056500634E-03 
2469	 2.81423511130422 
2470	 8.87725226319089E-02 
2471	 1.51795927893302E-02 
2472	-9.12267163821798E-02 
2473	-0.180540916360603 
2474	-0.38399007242105 
2475	-1.30175403856841 
2476	-2.07933891889937 
2477	-8.65968547990849 
2478	-7.24032488403171 
2479	 2.81595949329212 
2480	-8.81801641883673E-02 
2481	 0.199503131291432 
2482	 0.1180182136026 
2483	 0.366693991904543 
2484	 0.293597797067245 
2485	-0.290767856631906 
2486	-0.123342570613923 
2487	-0.265299600428505 
2488	-0.108657107144307 
2489	 0.120561342774522 
2490	-8.25031977503143E-02 
2491	-0.152780452942942 
2492	 0.2724010437958 
2493	 1.04035987974816 
2494	 0.910041371722478 
2495	 1.18800519092737 
2496	 1.29293695933747 
2497	 1.04602614376686 
2498	 1.41684796320561 
2499	 0.9575964148251 
2500	 0.52961325572849 
